# r (Angstrom)    E (eV)    ΔE (eV)
2.822456957164461766e+00 5.557887554168701172e-01 6.491503715515136719e-01
2.880058119555573004e+00 5.123238563537597656e-01 6.056854724884033203e-01
2.937659281946684686e+00 4.696667194366455078e-01 5.630283355712890625e-01
2.995260444337795924e+00 4.278156757354736328e-01 5.211772918701171875e-01
3.052861606728907606e+00 3.867130279541015625e-01 4.800746440887451172e-01
3.110462769120018844e+00 3.462989330291748047e-01 4.396605491638183594e-01
3.168063931511130527e+00 3.064749240875244141e-01 3.998365402221679688e-01
3.225665093902241765e+00 2.671754360198974609e-01 3.605370521545410156e-01
3.283266256293353447e+00 2.283837795257568359e-01 3.217453956604003906e-01
3.340867418684464685e+00 1.901903152465820312e-01 2.835519313812255859e-01
3.398468581075575923e+00 1.527903079986572266e-01 2.461519241333007812e-01
3.456069743466687605e+00 1.164977550506591797e-01 2.098593711853027344e-01
3.513670905857799287e+00 8.169102668762207031e-02 1.750526428222656250e-01
3.571272068248910969e+00 4.881286621093750000e-02 1.421744823455810547e-01
3.628873230640022207e+00 1.835942268371582031e-02 1.117210388183593750e-01
3.686474393031133889e+00 -9.180545806884765625e-03 8.418107032775878906e-02
3.744075555422245127e+00 -3.331899642944335938e-02 6.004261970520019531e-02
3.801676717813356809e+00 -5.366182327270507812e-02 3.969979286193847656e-02
3.859277880204468048e+00 -6.991457939147949219e-02 2.344703674316406250e-02
3.916879042595579286e+00 -8.191037178039550781e-02 1.145124435424804688e-02
3.974480204986690968e+00 -8.966517448425292969e-02 3.696441650390625000e-03
4.032081367377802650e+00 -9.336161613464355469e-02 0.000000000000000000e+00
4.089682529768913888e+00 -9.331655502319335938e-02 4.506111145019531250e-05
4.147283692160025126e+00 -8.998990058898925781e-02 3.371715545654296875e-03
4.204884854551136364e+00 -8.393430709838867188e-02 9.427309036254882812e-03
4.262486016942248490e+00 -7.578945159912109375e-02 1.757216453552246094e-02
4.320087179333359728e+00 -6.619596481323242188e-02 2.716565132141113281e-02
4.377688341724470966e+00 -5.580639839172363281e-02 3.755521774291992188e-02
4.435289504115582204e+00 -4.519772529602050781e-02 4.816389083862304688e-02
4.492890666506694330e+00 -3.484535217285156250e-02 5.851626396179199219e-02
4.550491828897805568e+00 -2.508616447448730469e-02 6.827545166015625000e-02
4.608092991288916807e+00 -1.613473892211914062e-02 7.722687721252441406e-02
4.665694153680028045e+00 -8.072614669799804688e-03 8.528900146484375000e-02
4.723295316071139283e+00 -9.193420410156250000e-04 9.244227409362792969e-02
4.780896478462251409e+00 5.441665649414062500e-03 9.880328178405761719e-02
4.838497640853362647e+00 1.123809814453125000e-02 1.045997142791748047e-01
4.896098803244473885e+00 1.675891876220703125e-02 1.101205348968505859e-01
4.953699965635586011e+00 2.230739593505859375e-02 1.156690120697021484e-01
5.011301128026697249e+00 2.818489074707031250e-02 1.215465068817138672e-01
5.068902290417809375e+00 3.466629981994628906e-02 1.280279159545898438e-01
5.126503452808920613e+00 4.196739196777343750e-02 1.353290081024169922e-01
5.184104615200031851e+00 5.021333694458007812e-02 1.435749530792236328e-01
5.241705777591143089e+00 5.946373939514160156e-02 1.528253555297851562e-01
5.299306939982254328e+00 6.965446472167968750e-02 1.630160808563232422e-01
5.356908102373366454e+00 8.063721656799316406e-02 1.739988327026367188e-01
5.414509264764477692e+00 9.217953681945800781e-02 1.855411529541015625e-01
5.472110427155589818e+00 1.039566993713378906e-01 1.973183155059814453e-01
5.529711589546701056e+00 1.156399250030517578e-01 2.090015411376953125e-01
5.587312751937812294e+00 1.268343925476074219e-01 2.201960086822509766e-01
5.644913914328923532e+00 1.371505260467529297e-01 2.305121421813964844e-01
