# r (Angstrom)    E (eV)    ΔE (eV)
2.027995620567486057e+00 5.503513813018798828e-01 6.437129974365234375e-01
2.069383286293353219e+00 5.294005870819091797e-01 6.227622032165527344e-01
2.110770952019220381e+00 5.037379264831542969e-01 5.970995426177978516e-01
2.152158617745087099e+00 4.737045764923095703e-01 5.670661926269531250e-01
2.193546283470954261e+00 4.397900104522705078e-01 5.331516265869140625e-01
2.234933949196821423e+00 4.025754928588867188e-01 4.959371089935302734e-01
2.276321614922688585e+00 3.627324104309082031e-01 4.560940265655517578e-01
2.317709280648555747e+00 3.209831714630126953e-01 4.143447875976562500e-01
2.359096946374422910e+00 2.781002521514892578e-01 3.714618682861328125e-01
2.400484612100289628e+00 2.348699569702148438e-01 3.282315731048583984e-01
2.441872277826156790e+00 1.920576095581054688e-01 2.854192256927490234e-01
2.483259943552023952e+00 1.504063606262207031e-01 2.437679767608642578e-01
2.524647609277891114e+00 1.105866432189941406e-01 2.039482593536376953e-01
2.566035275003757832e+00 7.321667671203613281e-02 1.665782928466796875e-01
2.607422940729624994e+00 3.882336616516113281e-02 1.321849822998046875e-01
2.648810606455492156e+00 7.840633392333984375e-03 1.012022495269775391e-01
2.690198272181359318e+00 -1.938557624816894531e-02 7.397603988647460938e-02
2.731585937907226480e+00 -4.260945320129394531e-02 5.075216293334960938e-02
2.772973603633093198e+00 -6.167435646057128906e-02 3.168725967407226562e-02
2.814361269358960360e+00 -7.649564743041992188e-02 1.686596870422363281e-02
2.855748935084827522e+00 -8.703994750976562500e-02 6.321668624877929688e-03
2.897136600810694684e+00 -9.336161613464355469e-02 0.000000000000000000e+00
2.938524266536561402e+00 -9.553551673889160156e-02 -2.173900604248046875e-03
2.979911932262428564e+00 -9.365653991699218750e-02 -2.949237823486328125e-04
3.021299597988295282e+00 -8.785915374755859375e-02 5.502462387084960938e-03
3.062687263714162889e+00 -7.826209068298339844e-02 1.509952545166015625e-02
3.104074929440030051e+00 -6.500911712646484375e-02 2.835249900817871094e-02
3.145462595165896769e+00 -4.824924468994140625e-02 4.511237144470214844e-02
3.186850260891763931e+00 -2.812099456787109375e-02 6.524062156677246094e-02
3.228237926617631537e+00 -4.766941070556640625e-03 8.859467506408691406e-02
3.269625592343498255e+00 2.166485786437988281e-02 1.150264739990234375e-01
3.311013258069364973e+00 5.100488662719726562e-02 1.443665027618408203e-01
3.352400923795232135e+00 8.306002616882324219e-02 1.764216423034667969e-01
3.393788589521098853e+00 1.176173686981201172e-01 2.109789848327636719e-01
3.435176255246966459e+00 1.543972492218017578e-01 2.477588653564453125e-01
3.476563920972833621e+00 1.931276321411132812e-01 2.864892482757568359e-01
3.517951586698700339e+00 2.334499359130859375e-01 3.268115520477294922e-01
3.559339252424567945e+00 2.750058174133300781e-01 3.683674335479736328e-01
3.600726918150435107e+00 3.173637390136718750e-01 4.107253551483154297e-01
3.642114583876301825e+00 3.600716590881347656e-01 4.534332752227783203e-01
3.683502249602168543e+00 4.026601314544677734e-01 4.960217475891113281e-01
3.724889915328035705e+00 4.446499347686767578e-01 5.380115509033203125e-01
3.766277581053902423e+00 4.855926036834716797e-01 5.789542198181152344e-01
3.807665246779769586e+00 5.250325202941894531e-01 6.183941364288330078e-01
3.849052912505637192e+00 5.625562667846679688e-01 6.559178829193115234e-01
3.890440578231503910e+00 5.978066921234130859e-01 6.911683082580566406e-01
3.931828243957371516e+00 6.304874420166015625e-01 7.238490581512451172e-01
3.973215909683238678e+00 6.603641510009765625e-01 7.537257671356201172e-01
4.014603575409105396e+00 6.872997283935546875e-01 7.806613445281982422e-01
4.055991241134972114e+00 7.112312316894531250e-01 8.045928478240966797e-01
