# r (Angstrom)    E (eV)    ΔE (eV)
9.171471073020565079e-01 -5.483388900756835938e-02 3.852772712707519531e-02
9.358643952061801441e-01 -5.502414703369140625e-02 3.833746910095214844e-02
9.545816831103037803e-01 -5.552744865417480469e-02 3.783416748046875000e-02
9.732989710144273054e-01 -5.634021759033203125e-02 3.702139854431152344e-02
9.920162589185510527e-01 -5.743288993835449219e-02 3.592872619628906250e-02
1.010733546822674578e+00 -5.878543853759765625e-02 3.457617759704589844e-02
1.029450834726798325e+00 -6.037855148315429688e-02 3.298306465148925781e-02
1.048168122630921850e+00 -6.217789649963378906e-02 3.118371963500976562e-02
1.066885410535045375e+00 -6.416559219360351562e-02 2.919602394104003906e-02
1.085602698439168901e+00 -6.630849838256835938e-02 2.705311775207519531e-02
1.104319986343292426e+00 -6.858038902282714844e-02 2.478122711181640625e-02
1.123037274247416173e+00 -7.095026969909667969e-02 2.241134643554687500e-02
1.141754562151539920e+00 -7.338881492614746094e-02 1.997280120849609375e-02
1.160471850055663445e+00 -7.587027549743652344e-02 1.749134063720703125e-02
1.179189137959786970e+00 -7.835745811462402344e-02 1.500415802001953125e-02
1.197906425863910718e+00 -8.082747459411621094e-02 1.253414154052734375e-02
1.216623713768034243e+00 -8.323431015014648438e-02 1.012730598449707031e-02
1.235341001672157768e+00 -8.555889129638671875e-02 7.802724838256835938e-03
1.254058289576281515e+00 -8.776855468750000000e-02 5.593061447143554688e-03
1.272775577480405040e+00 -8.982491493225097656e-02 3.536701202392578125e-03
1.291492865384528566e+00 -9.170079231262207031e-02 1.660823822021484375e-03
1.310210153288652313e+00 -9.336161613464355469e-02 0.000000000000000000e+00
1.328927441192775838e+00 -9.478473663330078125e-02 -1.423120498657226562e-03
1.347644729096899363e+00 -9.592890739440917969e-02 -2.567291259765625000e-03
1.366362017001022888e+00 -9.677577018737792969e-02 -3.414154052734375000e-03
1.385079304905146858e+00 -9.730148315429687500e-02 -3.939867019653320312e-03
1.403796592809270383e+00 -9.746956825256347656e-02 -4.107952117919921875e-03
1.422513880713393908e+00 -9.726548194885253906e-02 -3.903865814208984375e-03
1.441231168617517433e+00 -9.665608406066894531e-02 -3.294467926025390625e-03
1.459948456521641180e+00 -9.563493728637695312e-02 -2.273321151733398438e-03
1.478665744425764705e+00 -9.416747093200683594e-02 -8.058547973632812500e-04
1.497383032329888231e+00 -9.224367141723632812e-02 1.117944717407226562e-03
1.516100320234011756e+00 -8.984470367431640625e-02 3.516912460327148438e-03
1.534817608138135281e+00 -8.695888519287109375e-02 6.402730941772460938e-03
1.553534896042259250e+00 -8.357405662536621094e-02 9.787559509277343750e-03
1.572252183946382775e+00 -7.968139648437500000e-02 1.368021965026855469e-02
1.590969471850506300e+00 -7.526946067810058594e-02 1.809215545654296875e-02
1.609686759754630048e+00 -7.033300399780273438e-02 2.302861213684082031e-02
1.628404047658753573e+00 -6.487321853637695312e-02 2.848839759826660156e-02
1.647121335562877098e+00 -5.888009071350097656e-02 3.448152542114257812e-02
1.665838623467000623e+00 -5.235385894775390625e-02 4.100775718688964844e-02
1.684555911371124148e+00 -4.529404640197753906e-02 4.806756973266601562e-02
1.703273199275247674e+00 -3.770709037780761719e-02 5.565452575683593750e-02
1.721990487179371421e+00 -2.959227561950683594e-02 6.376934051513671875e-02
1.740707775083495168e+00 -2.095460891723632812e-02 7.240700721740722656e-02
1.759425062987618693e+00 -1.180171966552734375e-02 8.155989646911621094e-02
1.778142350891742440e+00 -2.139806747436523438e-03 9.122180938720703125e-02
1.796859638795865965e+00 8.024215698242187500e-03 1.013858318328857422e-01
1.815576926699989491e+00 1.867437362670898438e-02 1.120359897613525391e-01
1.834294214604113016e+00 2.979445457458496094e-02 1.231560707092285156e-01
