# r (Angstrom)    E (eV)    ΔE (eV)
1.929908534405905485e+00 -5.523490905761718750e-02 3.812670707702636719e-02
1.969294422863168803e+00 -3.981685638427734375e-02 5.354475975036621094e-02
2.008680311320432565e+00 -2.671658992767333984e-02 6.664502620697021484e-02
2.048066199777695662e+00 -1.599621772766113281e-02 7.736539840698242188e-02
2.087452088234959202e+00 -7.671594619750976562e-03 8.569002151489257812e-02
2.126837976692222298e+00 -1.717925071716308594e-03 9.164369106292724609e-02
2.166223865149485839e+00 1.921653747558593750e-03 9.528326988220214844e-02
2.205609753606749379e+00 3.352642059326171875e-03 9.671425819396972656e-02
2.244995642064012920e+00 2.697944641113281250e-03 9.605956077575683594e-02
2.284381530521276016e+00 1.192092895507812500e-04 9.348082542419433594e-02
2.323767418978539112e+00 -4.206180572509765625e-03 8.915543556213378906e-02
2.363153307435802652e+00 -1.006627082824707031e-02 8.329534530639648438e-02
2.402539195893066193e+00 -1.722764968872070312e-02 7.613396644592285156e-02
2.441925084350329733e+00 -2.544307708740234375e-02 6.791853904724121094e-02
2.481310972807592830e+00 -3.442811965942382812e-02 5.893349647521972656e-02
2.520696861264856370e+00 -4.389905929565429688e-02 4.946255683898925781e-02
2.560082749722119466e+00 -5.354976654052734375e-02 3.981184959411621094e-02
2.599468638179383007e+00 -6.305837631225585938e-02 3.030323982238769531e-02
2.638854526636646547e+00 -7.211565971374511719e-02 2.124595642089843750e-02
2.678240415093909643e+00 -8.038759231567382812e-02 1.297402381896972656e-02
2.717626303551173184e+00 -8.756852149963378906e-02 5.793094635009765625e-03
2.757012192008436724e+00 -9.336161613464355469e-02 0.000000000000000000e+00
2.796398080465699820e+00 -9.749722480773925781e-02 -4.135608673095703125e-03
2.835783968922963361e+00 -9.974837303161621094e-02 -6.386756896972656250e-03
2.875169857380226457e+00 -9.991836547851562500e-02 -6.556749343872070312e-03
2.914555745837490441e+00 -9.786200523376464844e-02 -4.500389099121093750e-03
2.953941634294753538e+00 -9.349465370178222656e-02 -1.330375671386718750e-04
2.993327522752016634e+00 -8.681988716125488281e-02 6.541728973388671875e-03
3.032713411209280174e+00 -7.787752151489257812e-02 1.548409461975097656e-02
3.072099299666543715e+00 -6.679296493530273438e-02 2.656865119934082031e-02
3.111485188123807255e+00 -5.374956130981445312e-02 3.961205482482910156e-02
3.150871076581070351e+00 -3.897666931152343750e-02 5.438494682312011719e-02
3.190256965038333448e+00 -2.276897430419921875e-02 7.059264183044433594e-02
3.229642853495596988e+00 -5.470275878906250000e-03 8.789134025573730469e-02
3.269028741952860528e+00 1.256203651428222656e-02 1.059236526489257812e-01
3.308414630410124069e+00 3.094005584716796875e-02 1.243016719818115234e-01
3.347800518867387165e+00 4.925775527954101562e-02 1.426193714141845703e-01
3.387186407324651150e+00 6.712007522583007812e-02 1.604816913604736328e-01
3.426572295781914246e+00 8.411908149719238281e-02 1.774806976318359375e-01
3.465958184239177342e+00 9.989142417907714844e-02 1.932530403137207031e-01
3.505344072696440882e+00 1.140971183776855469e-01 2.074587345123291016e-01
3.544729961153703979e+00 1.264269351959228516e-01 2.197885513305664062e-01
3.584115849610967075e+00 1.366114616394042969e-01 2.299730777740478516e-01
3.623501738068230615e+00 1.444330215454101562e-01 2.377946376800537109e-01
3.662887626525494156e+00 1.497170925140380859e-01 2.430787086486816406e-01
3.702273514982757696e+00 1.523475646972656250e-01 2.457091808319091797e-01
3.741659403440021237e+00 1.522483825683593750e-01 2.456099987030029297e-01
3.781045291897284777e+00 1.494109630584716797e-01 2.427725791931152344e-01
3.820431180354547873e+00 1.438624858856201172e-01 2.372241020202636719e-01
3.859817068811810969e+00 1.356813907623291016e-01 2.290430068969726562e-01
