# r (Angstrom)    E (eV)    ΔE (eV)
2.617271616262912826e+00 -2.102357149124145508e-01 -1.168740987777709961e-01
2.670685322717257559e+00 -1.748604774475097656e-01 -8.149886131286621094e-02
2.724099029171603181e+00 -1.406725645065307617e-01 -4.731094837188720703e-02
2.777512735625947915e+00 -1.085476875305175781e-01 -1.518607139587402344e-02
2.830926442080293537e+00 -7.927095890045166016e-02 1.409065723419189453e-02
2.884340148534638271e+00 -5.348551273345947266e-02 3.987610340118408203e-02
2.937753854988983893e+00 -3.167450428009033203e-02 6.168711185455322266e-02
2.991167561443328626e+00 -1.416349411010742188e-02 7.919812202453613281e-02
3.044581267897674248e+00 -1.090168952941894531e-03 9.227144718170166016e-02
3.097994974352018982e+00 7.541656494140625000e-03 1.009032726287841797e-01
3.151408680806364160e+00 1.184988021850585938e-02 1.052114963531494141e-01
3.204822387260709338e+00 1.209545135498046875e-02 1.054570674896240234e-01
3.258236093715054515e+00 8.626222610473632812e-03 1.019878387451171875e-01
3.311649800169399693e+00 1.881122589111328125e-03 9.524273872375488281e-02
3.365063506623744871e+00 -7.605075836181640625e-03 8.575654029846191406e-02
3.418477213078090049e+00 -1.922774314880371094e-02 7.413387298583984375e-02
3.471890919532435227e+00 -3.231692314147949219e-02 6.104469299316406250e-02
3.525304625986780405e+00 -4.614186286926269531e-02 4.721975326538085938e-02
3.578718332441125582e+00 -5.995059013366699219e-02 3.341102600097656250e-02
3.632132038895470316e+00 -7.294321060180664062e-02 2.041840553283691406e-02
3.685545745349815938e+00 -8.432817459106445312e-02 9.033441543579101562e-03
3.738959451804161116e+00 -9.336161613464355469e-02 0.000000000000000000e+00
3.792373158258506294e+00 -9.937667846679687500e-02 -6.015062332153320312e-03
3.845786864712851028e+00 -1.018190383911132812e-01 -8.457422256469726562e-03
3.899200571167196205e+00 -1.002831459045410156e-01 -6.921529769897460938e-03
3.952614277621541827e+00 -9.454965591430664062e-02 -1.188039779663085938e-03
4.006027984075887005e+00 -8.463501930236816406e-02 8.726596832275390625e-03
4.059441690530231739e+00 -7.076406478881835938e-02 2.259755134582519531e-02
4.112855396984576473e+00 -5.335474014282226562e-02 4.000687599182128906e-02
4.166269103438922095e+00 -3.303885459899902344e-02 6.032276153564453125e-02
4.219682809893267716e+00 -1.058602333068847656e-02 8.277559280395507812e-02
4.273096516347612450e+00 1.311397552490234375e-02 1.064755916595458984e-01
4.326510222801957184e+00 3.709912300109863281e-02 1.304607391357421875e-01
4.379923929256302806e+00 6.040382385253906250e-02 1.537654399871826172e-01
4.433337635710648428e+00 8.207201957702636719e-02 1.754336357116699219e-01
4.486751342164993162e+00 1.012334823608398438e-01 1.945950984954833984e-01
4.540165048619337895e+00 1.171381473541259766e-01 2.104997634887695312e-01
4.593578755073683517e+00 1.291668415069580078e-01 2.225284576416015625e-01
4.646992461528029139e+00 1.368582248687744141e-01 2.302198410034179688e-01
4.700406167982373873e+00 1.399211883544921875e-01 2.332828044891357422e-01
4.753819874436718607e+00 1.382372379302978516e-01 2.315988540649414062e-01
4.807233580891064229e+00 1.318373680114746094e-01 2.251989841461181641e-01
4.860647287345408962e+00 1.209278106689453125e-01 2.142894268035888672e-01
4.914060993799753696e+00 1.058249473571777344e-01 1.991865634918212891e-01
4.967474700254099318e+00 8.698010444641113281e-02 1.803417205810546875e-01
5.020888406708444940e+00 6.492078304290771484e-02 1.582823991775512695e-01
5.074302113162790562e+00 4.025197029113769531e-02 1.336135864257812500e-01
5.127715819617135296e+00 1.356935501098632812e-02 1.069309711456298828e-01
5.181129526071480029e+00 -1.450586318969726562e-02 7.885575294494628906e-02
5.234543232525825651e+00 -4.337584972381591797e-02 4.998576641082763672e-02
