# r (Angstrom)    E (eV)    ΔE (eV)
2.192617543685746906e+00 -1.908032894134521484e-01 -9.744167327880859375e-02
2.237364840495660090e+00 -1.957626342773437500e-01 -1.024010181427001953e-01
2.282112137305573718e+00 -2.000834941864013672e-01 -1.067218780517578125e-01
2.326859434115486458e+00 -2.036106586456298828e-01 -1.102490425109863281e-01
2.371606730925400086e+00 -2.062144279479980469e-01 -1.128528118133544922e-01
2.416354027735313270e+00 -2.077901363372802734e-01 -1.144285202026367188e-01
2.461101324545226454e+00 -2.082438468933105469e-01 -1.148822307586669922e-01
2.505848621355139638e+00 -2.074952125549316406e-01 -1.141335964202880859e-01
2.550595918165052822e+00 -2.055070400238037109e-01 -1.121454238891601562e-01
2.595343214974966006e+00 -2.022571563720703125e-01 -1.088955402374267578e-01
2.640090511784879190e+00 -1.977555751800537109e-01 -1.043939590454101562e-01
2.684837808594792374e+00 -1.920523643493652344e-01 -9.869074821472167969e-02
2.729585105404706002e+00 -1.852092742919921875e-01 -9.184765815734863281e-02
2.774332402214618742e+00 -1.773223876953125000e-01 -8.396077156066894531e-02
2.819079699024531926e+00 -1.685094833374023438e-01 -7.514786720275878906e-02
2.863826995834445110e+00 -1.588950157165527344e-01 -6.553339958190917969e-02
2.908574292644358295e+00 -1.486403942108154297e-01 -5.527877807617187500e-02
2.953321589454271923e+00 -1.379013061523437500e-01 -4.453969001770019531e-02
2.998068886264184663e+00 -1.268429756164550781e-01 -3.348135948181152344e-02
3.042816183074097847e+00 -1.156175136566162109e-01 -2.225589752197265625e-02
3.087563479884011475e+00 -1.044092178344726562e-01 -1.104760169982910156e-02
3.132310776693924659e+00 -9.336161613464355469e-02 0.000000000000000000e+00
3.177058073503837843e+00 -8.263301849365234375e-02 1.072859764099121094e-02
3.221805370313750583e+00 -7.236218452453613281e-02 2.099943161010742188e-02
3.266552667123663767e+00 -6.268882751464843750e-02 3.067278861999511719e-02
3.311299963933577395e+00 -5.374431610107421875e-02 3.961730003356933594e-02
3.356047260743490579e+00 -4.567003250122070312e-02 4.769158363342285156e-02
3.400794557553403763e+00 -3.860974311828613281e-02 5.475187301635742188e-02
3.445541854363316503e+00 -3.269720077514648438e-02 6.066441535949707031e-02
3.490289151173230575e+00 -2.806186676025390625e-02 6.529974937438964844e-02
3.535036447983143315e+00 -2.481293678283691406e-02 6.854867935180664062e-02
3.579783744793056499e+00 -2.304601669311523438e-02 7.031559944152832031e-02
3.624531041602969683e+00 -2.284598350524902344e-02 7.051563262939453125e-02
3.669278338412882867e+00 -2.426767349243164062e-02 6.909394264221191406e-02
3.714025635222796495e+00 -2.732300758361816406e-02 6.603860855102539062e-02
3.758772932032709235e+00 -3.199195861816406250e-02 6.136965751647949219e-02
3.803520228842622419e+00 -3.821635246276855469e-02 5.514526367187500000e-02
3.848267525652536047e+00 -4.587721824645996094e-02 4.748439788818359375e-02
3.893014822462449231e+00 -5.483770370483398438e-02 3.852391242980957031e-02
3.937762119272362416e+00 -6.489324569702148438e-02 2.846837043762207031e-02
3.982509416082275600e+00 -7.583689689636230469e-02 1.752471923828125000e-02
4.027256712892188339e+00 -8.741307258605957031e-02 5.948543548583984375e-03
4.072004009702101079e+00 -9.936785697937011719e-02 -6.006240844726562500e-03
4.116751306512014708e+00 -1.114420890808105469e-01 -1.808047294616699219e-02
4.161498603321928336e+00 -1.233906745910644531e-01 -3.002905845642089844e-02
4.206245900131841076e+00 -1.350076198577880859e-01 -4.164600372314453125e-02
4.250993196941754704e+00 -1.460771560668945312e-01 -5.271553993225097656e-02
4.295740493751668332e+00 -1.564292907714843750e-01 -6.306767463684082031e-02
4.340487790561581072e+00 -1.659336090087890625e-01 -7.257199287414550781e-02
4.385235087371493812e+00 -1.744878292083740234e-01 -8.112621307373046875e-02
