# r (Angstrom)    E (eV)    ΔE (eV)
2.740331508098328595e+00 2.765562534332275391e-01 2.230104207992553711e-01
2.796256640916661595e+00 2.895235419273376465e-01 2.359777092933654785e-01
2.852181773734995041e+00 3.006136417388916016e-01 2.470678091049194336e-01
2.908106906553328042e+00 3.091322183609008789e-01 2.555863857269287109e-01
2.964032039371661487e+00 3.144636750221252441e-01 2.609178423881530762e-01
3.019957172189994488e+00 3.160452842712402344e-01 2.624994516372680664e-01
3.075882305008327933e+00 3.134073615074157715e-01 2.598615288734436035e-01
3.131807437826660934e+00 3.062345981597900391e-01 2.526887655258178711e-01
3.187732570644994379e+00 2.944253087043762207e-01 2.408794760704040527e-01
3.243657703463327380e+00 2.781442403793334961e-01 2.245984077453613281e-01
3.299582836281660381e+00 2.578490972518920898e-01 2.043032646179199219e-01
3.355507969099993826e+00 2.342982888221740723e-01 1.807524561882019043e-01
3.411433101918327271e+00 2.085286378860473633e-01 1.549828052520751953e-01
3.467358234736660272e+00 1.817717552185058594e-01 1.282259225845336914e-01
3.523283367554993717e+00 1.553565263748168945e-01 1.018106937408447266e-01
3.579208500373327162e+00 1.305758953094482422e-01 7.703006267547607422e-02
3.635133633191660163e+00 1.085949540138244629e-01 5.504912137985229492e-02
3.691058766009993608e+00 9.019458293914794922e-02 3.664875030517578125e-02
3.746983898828326609e+00 7.573699951171875000e-02 2.219116687774658203e-02
3.802909031646659610e+00 6.515282392501831055e-02 1.160699129104614258e-02
3.858834164464993055e+00 5.799472332000732422e-02 4.448890686035156250e-03
3.914759297283326500e+00 5.354583263397216797e-02 0.000000000000000000e+00
3.970684430101659501e+00 5.101203918457031250e-02 -2.533793449401855469e-03
4.026609562919992946e+00 4.955232143402099609e-02 -3.993511199951171875e-03
4.082534695738325503e+00 4.837644100189208984e-02 -5.169391632080078125e-03
4.138459828556659836e+00 4.686987400054931641e-02 -6.675958633422851562e-03
4.194384961374992393e+00 4.465514421463012695e-02 -8.890688419342041016e-03
4.250310094193325838e+00 4.164463281631469727e-02 -1.190119981765747070e-02
4.306235227011658395e+00 3.803193569183349609e-02 -1.551389694213867188e-02
4.362160359829992728e+00 3.427428007125854492e-02 -1.927155256271362305e-02
4.418085492648325285e+00 3.101074695587158203e-02 -2.253508567810058594e-02
4.474010625466658730e+00 2.897137403488159180e-02 -2.457445859909057617e-02
4.529935758284991287e+00 2.885901927947998047e-02 -2.468681335449218750e-02
4.585860891103324732e+00 3.126972913742065430e-02 -2.227610349655151367e-02
4.641786023921658177e+00 3.659069538116455078e-02 -1.695513725280761719e-02
4.697711156739991623e+00 4.496234655380249023e-02 -8.583486080169677734e-03
4.753636289558325068e+00 5.636948347091674805e-02 2.823650836944580078e-03
4.809561422376658513e+00 7.063782215118408203e-02 1.709198951721191406e-02
4.865486555194991958e+00 8.751940727233886719e-02 3.397357463836669922e-02
4.921411688013324515e+00 1.067586541175842285e-01 5.321282148361206055e-02
4.977336820831657960e+00 1.281287670135498047e-01 7.458293437957763672e-02
5.033261953649990517e+00 1.514343619346618652e-01 9.788852930068969727e-02
5.089187086468323962e+00 1.764770746231079102e-01 1.229312419891357422e-01
5.145112219286656519e+00 2.029903531074523926e-01 1.494445204734802246e-01
5.201037352104990852e+00 2.305302619934082031e-01 1.769844293594360352e-01
5.256962484923323409e+00 2.585891485214233398e-01 2.050433158874511719e-01
5.312887617741657742e+00 2.865893840789794922e-01 2.330435514450073242e-01
5.368812750559990299e+00 3.138834834098815918e-01 2.603376507759094238e-01
5.424737883378323744e+00 3.398050069808959961e-01 2.862591743469238281e-01
5.480663016196657189e+00 3.637514710426330566e-01 3.102056384086608887e-01
