# r (Angstrom)    E (eV)    ΔE (eV)
2.619968466466876755e+00 1.968426704406738281e-01 1.432968378067016602e-01
2.673437210680486231e+00 2.021438479423522949e-01 1.485980153083801270e-01
2.726905954894096595e+00 2.077861428260803223e-01 1.542403101921081543e-01
2.780374699107706071e+00 2.137437462806701660e-01 1.601979136466979980e-01
2.833843443321315991e+00 2.199195027351379395e-01 1.663736701011657715e-01
2.887312187534925467e+00 2.259341478347778320e-01 1.723883152008056641e-01
2.940780931748535387e+00 2.310501933097839355e-01 1.775043606758117676e-01
2.994249675962144863e+00 2.342023253440856934e-01 1.806564927101135254e-01
3.047718420175754783e+00 2.341559529304504395e-01 1.806101202964782715e-01
3.101187164389364259e+00 2.297466993331909180e-01 1.762008666992187500e-01
3.154655908602974179e+00 2.201677560806274414e-01 1.666219234466552734e-01
3.208124652816584099e+00 2.052211761474609375e-01 1.516753435134887695e-01
3.261593397030194019e+00 1.854586601257324219e-01 1.319128274917602539e-01
3.315062141243803495e+00 1.621856689453125000e-01 1.086398363113403320e-01
3.368530885457412971e+00 1.373122930526733398e-01 8.376646041870117188e-02
3.421999629671022891e+00 1.129984855651855469e-01 5.945265293121337891e-02
3.475468373884632367e+00 9.132701158523559570e-02 3.778117895126342773e-02
3.528937118098242287e+00 7.393032312393188477e-02 2.038449048995971680e-02
3.582405862311852207e+00 6.171953678131103516e-02 8.173704147338867188e-03
3.635874606525461683e+00 5.478906631469726562e-02 1.243233680725097656e-03
3.689343350739071603e+00 5.247253179550170898e-02 -1.073300838470458984e-03
3.742812094952681523e+00 5.354583263397216797e-02 0.000000000000000000e+00
3.796280839166290999e+00 5.652004480361938477e-02 2.974212169647216797e-03
3.849749583379900475e+00 5.986499786376953125e-02 6.319165229797363281e-03
3.903218327593509951e+00 6.226384639739990234e-02 8.718013763427734375e-03
3.956687071807120759e+00 6.276953220367431641e-02 9.223699569702148438e-03
4.010155816020730235e+00 6.089639663696289062e-02 7.350564002990722656e-03
4.063624560234339711e+00 5.660867691040039062e-02 3.062844276428222656e-03
4.117093304447949187e+00 5.026686191558837891e-02 -3.278970718383789062e-03
4.170562048661559551e+00 4.251837730407714844e-02 -1.102745532989501953e-02
4.224030792875169027e+00 3.416025638580322266e-02 -1.938557624816894531e-02
4.277499537088778503e+00 2.599912881851196289e-02 -2.754670381546020508e-02
4.330968281302387979e+00 1.872384548187255859e-02 -3.482198715209960938e-02
4.384437025515997455e+00 1.285308599472045898e-02 -4.069274663925170898e-02
4.437905769729607819e+00 8.706927299499511719e-03 -4.483890533447265625e-02
4.491374513943217295e+00 6.440281867980957031e-03 -4.710555076599121094e-02
4.544843258156826771e+00 6.132662296295166016e-03 -4.741317033767700195e-02
4.598312002370438023e+00 7.900536060333251953e-03 -4.564529657363891602e-02
4.651780746584047499e+00 1.202905178070068359e-02 -4.151678085327148438e-02
4.705249490797656975e+00 1.891267299652099609e-02 -3.463315963745117188e-02
4.758718235011266451e+00 2.901196479797363281e-02 -2.453386783599853516e-02
4.812186979224875927e+00 4.273474216461181641e-02 -1.081109046936035156e-02
4.865655723438485403e+00 6.028890609741210938e-02 6.743073463439941406e-03
4.919124467652094879e+00 8.156108856201171875e-02 2.801525592803955078e-02
4.972593211865705243e+00 1.061155796051025391e-01 5.256974697113037109e-02
5.026061956079314719e+00 1.331917047500610352e-01 7.964587211608886719e-02
5.079530700292925083e+00 1.617318391799926758e-01 1.081860065460205078e-01
5.132999444506534559e+00 1.904636621475219727e-01 1.369178295135498047e-01
5.186468188720144035e+00 2.179803848266601562e-01 1.644345521926879883e-01
5.239936932933753511e+00 2.429162263870239258e-01 1.893703937530517578e-01
