# r (Angstrom)    E (eV)    ΔE (eV)
1.748989074702216318e+00 2.220528125762939453e-01 1.685069799423217773e-01
1.784682729287975889e+00 2.234634160995483398e-01 1.699175834655761719e-01
1.820376383873735460e+00 2.226773500442504883e-01 1.691315174102783203e-01
1.856070038459494809e+00 2.192537784576416016e-01 1.657079458236694336e-01
1.891763693045254602e+00 2.129035592079162598e-01 1.593577265739440918e-01
1.927457347631013951e+00 2.035174369812011719e-01 1.499716043472290039e-01
1.963151002216773522e+00 1.911840438842773438e-01 1.376382112503051758e-01
1.998844656802532871e+00 1.762021183967590332e-01 1.226562857627868652e-01
2.034538311388292442e+00 1.590662002563476562e-01 1.055203676223754883e-01
2.070231965974052013e+00 1.404280662536621094e-01 8.688223361968994141e-02
2.105925620559811584e+00 1.210860610008239746e-01 6.754022836685180664e-02
2.141619275145571155e+00 1.019003391265869141e-01 4.835450649261474609e-02
2.177312929731330726e+00 8.376812934875488281e-02 3.022229671478271484e-02
2.213006584317090297e+00 6.754118204116821289e-02 1.399534940719604492e-02
2.248700238902849424e+00 5.395376682281494141e-02 4.079341888427734375e-04
2.284393893488609439e+00 4.356354475021362305e-02 -9.982287883758544922e-03
2.320087548074368566e+00 3.674226999282836914e-02 -1.680356264114379883e-02
2.355781202660128137e+00 3.362524509429931641e-02 -1.992058753967285156e-02
2.391474857245887709e+00 3.413093090057373047e-02 -1.941490173339843750e-02
2.427168511831647280e+00 3.796213865280151367e-02 -1.558369398117065430e-02
2.462862166417406851e+00 4.463768005371093750e-02 -8.908152580261230469e-03
2.498555821003166422e+00 5.354583263397216797e-02 0.000000000000000000e+00
2.534249475588925993e+00 6.400281190872192383e-02 1.045697927474975586e-02
2.569943130174685120e+00 7.528257369995117188e-02 2.173674106597900391e-02
2.605636784760444691e+00 8.669251203536987305e-02 3.314667940139770508e-02
2.641330439346204706e+00 9.761416912078857422e-02 4.406833648681640625e-02
2.677024093931963833e+00 1.075399518013000488e-01 5.399411916732788086e-02
2.712717748517723404e+00 1.160954833030700684e-01 6.254965066909790039e-02
2.748411403103482531e+00 1.230456829071044922e-01 6.949985027313232422e-02
2.784105057689242546e+00 1.283040046691894531e-01 7.475817203521728516e-02
2.819798712275002117e+00 1.319132447242736816e-01 7.836741209030151367e-02
2.855492366860761688e+00 1.340219974517822266e-01 8.047616481781005859e-02
2.891186021446520815e+00 1.348645091056823730e-01 8.131867647171020508e-02
2.926879676032280386e+00 1.347134113311767578e-01 8.116757869720458984e-02
2.962573330618040401e+00 1.338689923286437988e-01 8.032315969467163086e-02
2.998266985203799528e+00 1.326081752777099609e-01 7.906234264373779297e-02
3.033960639789559099e+00 1.311686038970947266e-01 7.762277126312255859e-02
3.069654294375319115e+00 1.297302842140197754e-01 7.618445158004760742e-02
3.105347948961078242e+00 1.284017562866210938e-01 7.485592365264892578e-02
3.141041603546837813e+00 1.272216439247131348e-01 7.367581129074096680e-02
3.176735258132596940e+00 1.261577010154724121e-01 7.261186838150024414e-02
3.212428912718356511e+00 1.251376867294311523e-01 7.159185409545898438e-02
3.248122567304116082e+00 1.240485906600952148e-01 7.050275802612304688e-02
3.283816221889875209e+00 1.227695941925048828e-01 6.922376155853271484e-02
3.319509876475635224e+00 1.212046146392822266e-01 6.765878200531005859e-02
3.355203531061394795e+00 1.193076968193054199e-01 6.576186418533325195e-02
3.390897185647154366e+00 1.171096563339233398e-01 6.356382369995117188e-02
3.426590840232913937e+00 1.147255301475524902e-01 6.117969751358032227e-02
3.462284494818673508e+00 1.123582720756530762e-01 5.881243944168090820e-02
3.497978149404432635e+00 1.103207468986511230e-01 5.677491426467895508e-02
