# r (Angstrom)    E (eV)    ΔE (eV)
2.027995620567486057e+00 1.065270304679870605e-01 5.298119783401489258e-02
2.069383286293353219e+00 1.021065711975097656e-01 4.856073856353759766e-02
2.110770952019220381e+00 9.789013862609863281e-02 4.434430599212646484e-02
2.152158617745087099e+00 9.332549571990966797e-02 3.977966308593750000e-02
2.193546283470954261e+00 8.791917562484741211e-02 3.437334299087524414e-02
2.234933949196821423e+00 8.135110139846801758e-02 2.780526876449584961e-02
2.276321614922688585e+00 7.350975275039672852e-02 1.996392011642456055e-02
2.317709280648555747e+00 6.451833248138427734e-02 1.097249984741210938e-02
2.359096946374422910e+00 5.473721027374267578e-02 1.191377639770507812e-03
2.400484612100289628e+00 4.470282793045043945e-02 -8.843004703521728516e-03
2.441872277826156790e+00 3.506517410278320312e-02 -1.848065853118896484e-02
2.483259943552023952e+00 2.651923894882202148e-02 -2.702659368515014648e-02
2.524647609277891114e+00 1.971834897994995117e-02 -3.382748365402221680e-02
2.566035275003757832e+00 1.519548892974853516e-02 -3.835034370422363281e-02
2.607422940729624994e+00 1.328659057617187500e-02 -4.025924205780029297e-02
2.648810606455492156e+00 1.410210132598876953e-02 -3.944373130798339844e-02
2.690198272181359318e+00 1.749497652053833008e-02 -3.605085611343383789e-02
2.731585937907226480e+00 2.307438850402832031e-02 -3.047144412994384766e-02
2.772973603633093198e+00 3.023934364318847656e-02 -2.330648899078369141e-02
2.814361269358960360e+00 3.823071718215942383e-02 -1.531511545181274414e-02
2.855748935084827522e+00 4.625082015991210938e-02 -7.295012474060058594e-03
2.897136600810694684e+00 5.354583263397216797e-02 0.000000000000000000e+00
2.938524266536561402e+00 5.950474739074707031e-02 5.958914756774902344e-03
2.979911932262428564e+00 6.373339891433715820e-02 1.018756628036499023e-02
3.021299597988295282e+00 6.608885526657104492e-02 1.254302263259887695e-02
3.062687263714162889e+00 6.671243906021118164e-02 1.316660642623901367e-02
3.104074929440030051e+00 6.600326299667358398e-02 1.245743036270141602e-02
3.145462595165896769e+00 6.457716226577758789e-02 1.103132963180541992e-02
3.186850260891763931e+00 6.318944692611694336e-02 9.643614292144775391e-03
3.228237926617631537e+00 6.263810396194458008e-02 9.092271327972412109e-03
3.269625592343498255e+00 6.365591287612915039e-02 1.011008024215698242e-02
3.311013258069364973e+00 6.682002544403076172e-02 1.327419281005859375e-02
3.352400923795232135e+00 7.247459888458251953e-02 1.892876625061035156e-02
3.393788589521098853e+00 8.067536354064941406e-02 2.712953090667724609e-02
3.435176255246966459e+00 9.118115901947021484e-02 3.763532638549804688e-02
3.476563920972833621e+00 1.034668684005737305e-01 4.992103576660156250e-02
3.517951586698700339e+00 1.167858839035034180e-01 6.324005126953125000e-02
3.559339252424567945e+00 1.302539110183715820e-01 7.670807838439941406e-02
3.600726918150435107e+00 1.429474949836730957e-01 8.940166234970092773e-02
3.642114583876301825e+00 1.539991497993469238e-01 1.004533171653747559e-01
3.683502249602168543e+00 1.627130508422851562e-01 1.091672182083129883e-01
3.724889915328035705e+00 1.686197519302368164e-01 1.150739192962646484e-01
3.766277581053902423e+00 1.715011596679687500e-01 1.179553270339965820e-01
3.807665246779769586e+00 1.713817715644836426e-01 1.178359389305114746e-01
3.849052912505637192e+00 1.685100793838500977e-01 1.149642467498779297e-01
3.890440578231503910e+00 1.632910370826721191e-01 1.097452044486999512e-01
3.931828243957371516e+00 1.562126874923706055e-01 1.026668548583984375e-01
3.973215909683238678e+00 1.477952003479003906e-01 9.424936771392822266e-02
4.014603575409105396e+00 1.385365724563598633e-01 8.499073982238769531e-02
4.055991241134972114e+00 1.288966536521911621e-01 7.535082101821899414e-02
