# r (Angstrom)    E (eV)    ΔE (eV)
9.171471073020565079e-01 -2.579639554023742676e-01 -3.115097880363464355e-01
9.358643952061801441e-01 -2.255961298942565918e-01 -2.791419625282287598e-01
9.545816831103037803e-01 -1.939542293548583984e-01 -2.475000619888305664e-01
9.732989710144273054e-01 -1.632369756698608398e-01 -2.167828083038330078e-01
9.920162589185510527e-01 -1.336519718170166016e-01 -1.871978044509887695e-01
1.010733546822674578e+00 -1.053915023803710938e-01 -1.589373350143432617e-01
1.029450834726798325e+00 -7.865530252456665039e-02 -1.322011351585388184e-01
1.048168122630921850e+00 -5.361688137054443359e-02 -1.071627140045166016e-01
1.066885410535045375e+00 -3.044950962066650391e-02 -8.399534225463867188e-02
1.085602698439168901e+00 -9.308993816375732422e-03 -6.285482645034790039e-02
1.104319986343292426e+00 9.660005569458007812e-03 -4.388582706451416016e-02
1.123037274247416173e+00 2.633237838745117188e-02 -2.721345424652099609e-02
1.141754562151539920e+00 4.059535264968872070e-02 -1.295047998428344727e-02
1.160471850055663445e+00 5.236226320266723633e-02 -1.183569431304931641e-03
1.179189137959786970e+00 6.156259775161743164e-02 8.016765117645263672e-03
1.197906425863910718e+00 6.815171241760253906e-02 1.460587978363037109e-02
1.216623713768034243e+00 7.210969924926757812e-02 1.856386661529541016e-02
1.235341001672157768e+00 7.344251871109008789e-02 1.989668607711791992e-02
1.254058289576281515e+00 7.218092679977416992e-02 1.863509416580200195e-02
1.272775577480405040e+00 6.838208436965942383e-02 1.483625173568725586e-02
1.291492865384528566e+00 6.213486194610595703e-02 8.589029312133789062e-03
1.310210153288652313e+00 5.354583263397216797e-02 0.000000000000000000e+00
1.328927441192775838e+00 4.275405406951904297e-02 -1.079177856445312500e-02
1.347644729096899363e+00 2.991116046905517578e-02 -2.363467216491699219e-02
1.366362017001022888e+00 1.519870758056640625e-02 -3.834712505340576172e-02
1.385079304905146858e+00 -1.189112663269042969e-03 -5.473494529724121094e-02
1.403796592809270383e+00 -1.904129981994628906e-02 -7.258713245391845703e-02
1.422513880713393908e+00 -3.813815116882324219e-02 -9.168398380279541016e-02
1.441231168617517433e+00 -5.825281143188476562e-02 -1.117986440658569336e-01
1.459948456521641180e+00 -7.915115356445312500e-02 -1.326969861984252930e-01
1.478665744425764705e+00 -1.005997657775878906e-01 -1.541455984115600586e-01
1.497383032329888231e+00 -1.223657727241516113e-01 -1.759116053581237793e-01
1.516100320234011756e+00 -1.442270874977111816e-01 -1.977729201316833496e-01
1.534817608138135281e+00 -1.659670472145080566e-01 -2.195128798484802246e-01
1.553534896042259250e+00 -1.873819231986999512e-01 -2.409277558326721191e-01
1.572252183946382775e+00 -2.082845568656921387e-01 -2.618303894996643066e-01
1.590969471850506300e+00 -2.284981608390808105e-01 -2.820439934730529785e-01
1.609686759754630048e+00 -2.478666305541992188e-01 -3.014124631881713867e-01
1.628404047658753573e+00 -2.662488818168640137e-01 -3.197947144508361816e-01
1.647121335562877098e+00 -2.835335731506347656e-01 -3.370794057846069336e-01
1.665838623467000623e+00 -2.996229529380798340e-01 -3.531687855720520020e-01
1.684555911371124148e+00 -3.144428133964538574e-01 -3.679886460304260254e-01
1.703273199275247674e+00 -3.279466629028320312e-01 -3.814924955368041992e-01
1.721990487179371421e+00 -3.400991559028625488e-01 -3.936449885368347168e-01
1.740707775083495168e+00 -3.508957624435424805e-01 -4.044415950775146484e-01
1.759425062987618693e+00 -3.603464961051940918e-01 -4.138923287391662598e-01
1.778142350891742440e+00 -3.684751987457275391e-01 -4.220210313796997070e-01
1.796859638795865965e+00 -3.753314018249511719e-01 -4.288772344589233398e-01
1.815576926699989491e+00 -3.809677958488464355e-01 -4.345136284828186035e-01
1.834294214604113016e+00 -3.854574561119079590e-01 -4.390032887458801270e-01
