# r (Angstrom)    E (eV)    ΔE (eV)
1.217761365235774607e+00 2.365672588348388672e-01 1.830214262008666992e-01
1.242613637995688469e+00 2.237204909324645996e-01 1.701746582984924316e-01
1.267465910755602332e+00 2.107571959495544434e-01 1.572113633155822754e-01
1.292318183515515972e+00 1.977480053901672363e-01 1.442021727561950684e-01
1.317170456275429835e+00 1.847766637802124023e-01 1.312308311462402344e-01
1.342022729035343476e+00 1.719308495521545410e-01 1.183850169181823730e-01
1.366875001795257338e+00 1.593087315559387207e-01 1.057628989219665527e-01
1.391727274555170979e+00 1.470095515251159668e-01 9.346371889114379883e-02
1.416579547315084842e+00 1.351469755172729492e-01 8.160114288330078125e-02
1.441431820074998704e+00 1.238408684730529785e-01 7.029503583908081055e-02
1.466284092834912345e+00 1.132106781005859375e-01 5.966484546661376953e-02
1.491136365594826207e+00 1.033673286437988281e-01 4.982149600982666016e-02
1.515988638354740070e+00 9.440147876739501953e-02 4.085564613342285156e-02
1.540840911114653711e+00 8.638346195220947266e-02 3.283762931823730469e-02
1.565693183874567351e+00 7.935386896133422852e-02 2.580803632736206055e-02
1.590545456634481214e+00 7.331150770187377930e-02 1.976567506790161133e-02
1.615397729394394855e+00 6.822621822357177734e-02 1.468038558959960938e-02
1.640250002154308939e+00 6.402927637100219727e-02 1.048344373703002930e-02
1.665102274914222580e+00 6.061375141143798828e-02 7.067918777465820312e-03
1.689954547674136220e+00 5.784046649932861328e-02 4.294633865356445312e-03
1.714806820434050083e+00 5.554854869842529297e-02 2.002716064453125000e-03
1.739659093193963946e+00 5.354583263397216797e-02 0.000000000000000000e+00
1.764511365953877586e+00 5.163347721099853516e-02 -1.912355422973632812e-03
1.789363638713791227e+00 4.959547519683837891e-02 -3.950357437133789062e-03
1.814215911473705090e+00 4.721361398696899414e-02 -6.332218647003173828e-03
1.839068184233618952e+00 4.427200555801391602e-02 -9.273827075958251953e-03
1.863920456993532815e+00 4.056298732757568359e-02 -1.298284530639648438e-02
1.888772729753446455e+00 3.586995601654052734e-02 -1.767587661743164062e-02
1.913625002513360096e+00 3.001707792282104492e-02 -2.352875471115112305e-02
1.938477275273274181e+00 2.286136150360107422e-02 -3.068447113037109375e-02
1.963329548033187821e+00 1.428669691085815430e-02 -3.925913572311401367e-02
1.988181820793101462e+00 4.222929477691650391e-03 -4.932290315628051758e-02
2.013034093553015325e+00 -7.363080978393554688e-03 -6.090891361236572266e-02
2.037886366312928743e+00 -2.045029401779174805e-02 -7.399612665176391602e-02
2.062738639072843050e+00 -3.497791290283203125e-02 -8.852374553680419922e-02
2.087590911832756468e+00 -5.084705352783203125e-02 -1.043928861618041992e-01
2.112443184592670331e+00 -6.787157058715820312e-02 -1.214174032211303711e-01
2.137295457352584194e+00 -8.582884073257446289e-02 -1.393746733665466309e-01
2.162147730112498056e+00 -1.044653654098510742e-01 -1.580111980438232422e-01
2.187000002872411919e+00 -1.234962940216064453e-01 -1.770421266555786133e-01
2.211852275632325338e+00 -1.426180005073547363e-01 -1.961638331413269043e-01
2.236704548392239200e+00 -1.615221500396728516e-01 -2.150679826736450195e-01
2.261556821152152619e+00 -1.798982620239257812e-01 -2.334440946578979492e-01
2.286409093912066481e+00 -1.974734663963317871e-01 -2.510192990303039551e-01
2.311261366671980788e+00 -2.140014171600341797e-01 -2.675472497940063477e-01
2.336113639431894207e+00 -2.292888164520263672e-01 -2.828346490859985352e-01
2.360965912191808513e+00 -2.431989312171936035e-01 -2.967447638511657715e-01
2.385818184951721932e+00 -2.556522488594055176e-01 -3.091980814933776855e-01
2.410670457711635795e+00 -2.666363120079040527e-01 -3.201821446418762207e-01
2.435522730471549213e+00 -2.762005925178527832e-01 -3.297464251518249512e-01
