# r (Angstrom)    E (eV)    ΔE (eV)
1.929908534405905485e+00 -2.906060218811035156e-02 -8.260643482208251953e-02
1.969294422863168803e+00 -4.402965307235717773e-02 -9.757548570632934570e-02
2.008680311320432565e+00 -5.487751960754394531e-02 -1.084233522415161133e-01
2.048066199777695662e+00 -6.144279241561889648e-02 -1.149886250495910645e-01
2.087452088234959202e+00 -6.364941596984863281e-02 -1.171952486038208008e-01
2.126837976692222298e+00 -6.156313419342041016e-02 -1.151089668273925781e-01
2.166223865149485839e+00 -5.542290210723876953e-02 -1.089687347412109375e-01
2.205609753606749379e+00 -4.570019245147705078e-02 -9.924602508544921875e-02
2.244995642064012920e+00 -3.308641910552978516e-02 -8.663225173950195312e-02
2.284381530521276016e+00 -1.844155788421630859e-02 -7.198739051818847656e-02
2.323767418978539112e+00 -2.736568450927734375e-03 -5.628240108489990234e-02
2.363153307435802652e+00 1.302802562713623047e-02 -4.051780700683593750e-02
2.402539195893066193e+00 2.790397405624389648e-02 -2.564185857772827148e-02
2.441925084350329733e+00 4.107487201690673828e-02 -1.247096061706542969e-02
2.481310972807592830e+00 5.190658569335937500e-02 -1.639246940612792969e-03
2.520696861264856370e+00 5.998861789703369141e-02 6.442785263061523438e-03
2.560082749722119466e+00 6.512808799743652344e-02 1.158225536346435547e-02
2.599468638179383007e+00 6.734806299209594727e-02 1.380223035812377930e-02
2.638854526636646547e+00 6.686294078826904297e-02 1.331710815429687500e-02
2.678240415093909643e+00 6.405210494995117188e-02 1.050627231597900391e-02
2.717626303551173184e+00 5.941414833068847656e-02 5.868315696716308594e-03
2.757012192008436724e+00 5.354583263397216797e-02 0.000000000000000000e+00
2.796398080465699820e+00 4.711115360260009766e-02 -6.434679031372070312e-03
2.835783968922963361e+00 4.077106714248657227e-02 -1.277476549148559570e-02
2.875169857380226457e+00 3.515607118606567383e-02 -1.838976144790649414e-02
2.914555745837490441e+00 3.081446886062622070e-02 -2.273136377334594727e-02
2.953941634294753538e+00 2.819621562957763672e-02 -2.534961700439453125e-02
2.993327522752016634e+00 2.762198448181152344e-02 -2.592384815216064453e-02
3.032713411209280174e+00 2.928632497787475586e-02 -2.425950765609741211e-02
3.072099299666543715e+00 3.326898813247680664e-02 -2.027684450149536133e-02
3.111485188123807255e+00 3.956264257431030273e-02 -1.398319005966186523e-02
3.150871076581070351e+00 4.804301261901855469e-02 -5.502820014953613281e-03
3.190256965038333448e+00 5.852252244949340820e-02 4.976689815521240234e-03
3.229642853495596988e+00 7.080376148223876953e-02 1.725792884826660156e-02
3.269028741952860528e+00 8.465564250946044922e-02 3.110980987548828125e-02
3.308414630410124069e+00 9.979707002639770508e-02 4.625123739242553711e-02
3.347800518867387165e+00 1.159005761146545410e-01 6.235474348068237305e-02
3.387186407324651150e+00 1.325779557228088379e-01 7.903212308883666992e-02
3.426572295781914246e+00 1.493917107582092285e-01 9.584587812423706055e-02
3.465958184239177342e+00 1.658616065979003906e-01 1.123157739639282227e-01
3.505344072696440882e+00 1.814604401588439941e-01 1.279146075248718262e-01
3.544729961153703979e+00 1.956407427787780762e-01 1.420949101448059082e-01
3.584115849610967075e+00 2.078777551651000977e-01 1.543319225311279297e-01
3.623501738068230615e+00 2.176624536514282227e-01 1.641166210174560547e-01
3.662887626525494156e+00 2.245351672172546387e-01 1.709893345832824707e-01
3.702273514982757696e+00 2.280458807945251465e-01 1.745000481605529785e-01
3.741659403440021237e+00 2.278053164482116699e-01 1.742594838142395020e-01
3.781045291897284777e+00 2.235441207885742188e-01 1.699982881546020508e-01
3.820431180354547873e+00 2.150628566741943359e-01 1.615170240402221680e-01
3.859817068811810969e+00 2.023198604583740234e-01 1.487740278244018555e-01
