# r (Angstrom)    E (eV)    ΔE (eV)
7.118603984371845161e-01 2.994465827941894531e-02 -2.360117435455322266e-02
7.263881616705963884e-01 3.158587217330932617e-02 -2.195996046066284180e-02
7.409159249040083717e-01 3.332275152206420898e-02 -2.022308111190795898e-02
7.554436881374202439e-01 3.513097763061523438e-02 -1.841485500335693359e-02
7.699714513708322272e-01 3.698873519897460938e-02 -1.655709743499755859e-02
7.844992146042440995e-01 3.886848688125610352e-02 -1.467734575271606445e-02
7.990269778376560827e-01 4.074800014495849609e-02 -1.279783248901367188e-02
8.135547410710679550e-01 4.260456562042236328e-02 -1.094126701354980469e-02
8.280825043044799383e-01 4.441297054290771484e-02 -9.132862091064453125e-03
8.426102675378918105e-01 4.615193605422973633e-02 -7.393896579742431641e-03
8.571380307713036828e-01 4.779893159866333008e-02 -5.746901035308837891e-03
8.716657940047156661e-01 4.932862520217895508e-02 -4.217207431793212891e-03
8.861935572381276494e-01 5.072259902954101562e-02 -2.823233604431152344e-03
9.007213204715396326e-01 5.196017026901245117e-02 -1.585662364959716797e-03
9.152490837049515049e-01 5.301547050476074219e-02 -5.303621292114257812e-04
9.297768469383634882e-01 5.387067794799804688e-02 3.248453140258789062e-04
9.443046101717753604e-01 5.450350046157836914e-02 9.576678276062011719e-04
9.588323734051873437e-01 5.489194393157958984e-02 1.346111297607421875e-03
9.733601366385992160e-01 5.501413345336914062e-02 1.468300819396972656e-03
9.878878998720110882e-01 5.484515428543090820e-02 1.299321651458740234e-03
1.002415663105423071e+00 5.436438322067260742e-02 8.185505867004394531e-04
1.016943426338835055e+00 5.354583263397216797e-02 0.000000000000000000e+00
1.031471189572247038e+00 5.236589908599853516e-02 -1.179933547973632812e-03
1.045998952805658799e+00 5.079400539398193359e-02 -2.751827239990234375e-03
1.060526716039070783e+00 4.880529642105102539e-02 -4.740536212921142578e-03
1.075054479272482766e+00 4.636710882186889648e-02 -7.178723812103271484e-03
1.089582242505894749e+00 4.345279932022094727e-02 -1.009303331375122070e-02
1.104110005739306510e+00 4.003137350082397461e-02 -1.351445913314819336e-02
1.118637768972718494e+00 3.606683015823364258e-02 -1.747900247573852539e-02
1.133165532206130477e+00 3.152191638946533203e-02 -2.202391624450683594e-02
1.147693295439542460e+00 2.635949850082397461e-02 -2.718633413314819336e-02
1.162221058672954221e+00 2.055591344833374023e-02 -3.298991918563842773e-02
1.176748821906366205e+00 1.407706737518310547e-02 -3.946876525878906250e-02
1.191276585139777966e+00 6.894826889038085938e-03 -4.665100574493408203e-02
1.205804348373190171e+00 -1.009643077850341797e-03 -5.455547571182250977e-02
1.220332111606601933e+00 -9.660601615905761719e-03 -6.320643424987792969e-02
1.234859874840013916e+00 -1.906895637512207031e-02 -7.261478900909423828e-02
1.249387638073425899e+00 -2.924436330795288086e-02 -8.279019594192504883e-02
1.263915401306837882e+00 -4.018425941467285156e-02 -9.373009204864501953e-02
1.278443164540249866e+00 -5.188560485839843750e-02 -1.054314374923706055e-01
1.292970927773661627e+00 -6.433296203613281250e-02 -1.178787946701049805e-01
1.307498691007073610e+00 -7.750535011291503906e-02 -1.310511827468872070e-01
1.322026454240485371e+00 -9.136670827865600586e-02 -1.449125409126281738e-01
1.336554217473897355e+00 -1.058773994445800781e-01 -1.594232320785522461e-01
1.351081980707309338e+00 -1.209887266159057617e-01 -1.745345592498779297e-01
1.365609743940721321e+00 -1.366422176361083984e-01 -1.901880502700805664e-01
1.380137507174133304e+00 -1.527659893035888672e-01 -2.063118219375610352e-01
1.394665270407545288e+00 -1.692892909049987793e-01 -2.228351235389709473e-01
1.409193033640957049e+00 -1.861269474029541016e-01 -2.396727800369262695e-01
1.423720796874369032e+00 -2.031899690628051758e-01 -2.567358016967773438e-01
