# r (Angstrom)    E (eV)    ΔE (eV)
2.617420292217166988e+00 7.188421487808227539e-02 1.833838224411010742e-02
2.670837032874660011e+00 8.516669273376464844e-02 3.162086009979248047e-02
2.724253773532153478e+00 9.769523143768310547e-02 4.414939880371093750e-02
2.777670514189646500e+00 1.092673540115356445e-01 5.572152137756347656e-02
2.831087254847139967e+00 1.196963787078857422e-01 6.615054607391357422e-02
2.884503995504632989e+00 1.286988854408264160e-01 7.515305280685424805e-02
2.937920736162126456e+00 1.359569430351257324e-01 8.241111040115356445e-02
2.991337476819619479e+00 1.411772370338439941e-01 8.763140439987182617e-02
3.044754217477112945e+00 1.440849304199218750e-01 9.053909778594970703e-02
3.098170958134605968e+00 1.444497704505920410e-01 9.090393781661987305e-02
3.151587698792098990e+00 1.421856880187988281e-01 8.863985538482666016e-02
3.205004439449592013e+00 1.373600363731384277e-01 8.381420373916625977e-02
3.258421180107085480e+00 1.302089691162109375e-01 7.666313648223876953e-02
3.311837920764578502e+00 1.211746931076049805e-01 6.762886047363281250e-02
3.365254661422071525e+00 1.108040809631347656e-01 5.725824832916259766e-02
3.418671402079564992e+00 9.974098205566406250e-02 4.619514942169189453e-02
3.472088142737058014e+00 8.868616819381713867e-02 3.514033555984497070e-02
3.525504883394551481e+00 7.833093404769897461e-02 2.478510141372680664e-02
3.578921624052044503e+00 6.922984123229980469e-02 1.568400859832763672e-02
3.632338364709537526e+00 6.185728311538696289e-02 8.311450481414794922e-03
3.685755105367030993e+00 5.656623840332031250e-02 3.020405769348144531e-03
3.739171846024524459e+00 5.354583263397216797e-02 0.000000000000000000e+00
3.792588586682017482e+00 5.291134119033813477e-02 -6.344914436340332031e-04
3.846005327339510504e+00 5.461734533309936523e-02 1.071512699127197266e-03
3.899422067997003527e+00 5.846512317657470703e-02 4.919290542602539062e-03
3.952838808654497438e+00 6.417059898376464844e-02 1.062476634979248047e-02
4.006255549311990016e+00 7.139581441879272461e-02 1.784998178482055664e-02
4.059672289969483039e+00 7.977700233459472656e-02 2.623116970062255859e-02
4.113089030626976061e+00 8.896434307098388672e-02 3.541851043701171875e-02
4.166505771284469972e+00 9.863722324371337891e-02 4.509139060974121094e-02
4.219922511941962995e+00 1.085168719291687012e-01 5.497103929519653320e-02
4.273339252599456017e+00 1.183767318725585938e-01 6.483089923858642578e-02
4.326755993256949040e+00 1.280502080917358398e-01 7.450437545776367188e-02
4.380172733914442063e+00 1.374174356460571289e-01 8.387160301208496094e-02
4.433589474571935973e+00 1.463943719863891602e-01 9.284853935241699219e-02
4.487006215229428996e+00 1.549223065376281738e-01 1.013764739036560059e-01
4.540422955886922018e+00 1.629604101181030273e-01 1.094145774841308594e-01
4.593839696544415929e+00 1.704605221748352051e-01 1.169146895408630371e-01
4.647256437201908952e+00 1.773455142974853516e-01 1.237996816635131836e-01
4.700673177859401974e+00 1.835516095161437988e-01 1.300057768821716309e-01
4.754089918516894997e+00 1.889887452125549316e-01 1.354429125785827637e-01
4.807506659174388020e+00 1.935231685638427734e-01 1.399773359298706055e-01
4.860923399831881042e+00 1.970679163932800293e-01 1.435220837593078613e-01
4.914340140489374065e+00 1.995881795883178711e-01 1.460423469543457031e-01
4.967756881146867975e+00 2.011144757270812988e-01 1.475686430931091309e-01
5.021173621804360998e+00 2.016998529434204102e-01 1.481540203094482422e-01
5.074590362461854909e+00 2.014279961585998535e-01 1.478821635246276855e-01
5.128007103119347931e+00 2.003866434097290039e-01 1.468408107757568359e-01
5.181423843776840954e+00 1.987386345863342285e-01 1.451928019523620605e-01
5.234840584434333977e+00 1.967378854751586914e-01 1.431920528411865234e-01
