# r (Angstrom)    E (eV)    ΔE (eV)
1.630662771180870330e+00 -6.265825629234313965e-01 -6.801283955574035645e-01
1.663941603245786105e+00 -5.963438153266906738e-01 -6.498896479606628418e-01
1.697220435310701880e+00 -5.598552823066711426e-01 -6.134011149406433105e-01
1.730499267375617434e+00 -5.178183913230895996e-01 -5.713642239570617676e-01
1.763778099440533431e+00 -4.711131453514099121e-01 -5.246589779853820801e-01
1.797056931505448985e+00 -4.207730889320373535e-01 -4.743189215660095215e-01
1.830335763570364760e+00 -3.679230809211730957e-01 -4.214689135551452637e-01
1.863614595635280535e+00 -3.137317299842834473e-01 -3.672775626182556152e-01
1.896893427700196311e+00 -2.593668103218078613e-01 -3.129126429557800293e-01
1.930172259765111864e+00 -2.059735059738159180e-01 -2.595193386077880859e-01
1.963451091830027417e+00 -1.546465754508972168e-01 -2.081924080848693848e-01
1.996729923894943415e+00 -1.064247488975524902e-01 -1.599705815315246582e-01
2.030008755959859190e+00 -6.227195262908935547e-02 -1.158177852630615234e-01
2.063287588024774966e+00 -2.306407690048217773e-02 -7.660990953445434570e-02
2.096566420089690297e+00 1.042652130126953125e-02 -4.311931133270263672e-02
2.129845252154606516e+00 3.756135702133178711e-02 -1.598447561264038086e-02
2.163124084219521848e+00 5.785149335861206055e-02 4.305660724639892578e-03
2.196402916284437623e+00 7.100033760070800781e-02 1.745450496673583984e-02
2.229681748349353398e+00 7.690358161926269531e-02 2.335774898529052734e-02
2.262960580414269174e+00 7.569110393524169922e-02 2.214527130126953125e-02
2.296239412479184949e+00 6.771618127822875977e-02 1.417034864425659180e-02
2.329518244544100725e+00 5.354583263397216797e-02 0.000000000000000000e+00
2.362797076609016500e+00 3.393161296844482422e-02 -1.961421966552734375e-02
2.396075908673931831e+00 9.775400161743164062e-03 -4.377043247222900391e-02
2.429354740738847607e+00 -1.791566610336303711e-02 -7.146149873733520508e-02
2.462633572803763826e+00 -4.807627201080322266e-02 -1.016221046447753906e-01
2.495912404868679157e+00 -7.963967323303222656e-02 -1.331855058670043945e-01
2.529191236933594933e+00 -1.115725636482238770e-01 -1.651183962821960449e-01
2.562470068998510708e+00 -1.429146528244018555e-01 -1.964604854583740234e-01
2.595748901063426484e+00 -1.728139519691467285e-01 -2.263597846031188965e-01
2.629027733128342259e+00 -2.005370259284973145e-01 -2.540828585624694824e-01
2.662306565193258034e+00 -2.254971265792846680e-01 -2.790429592132568359e-01
2.695585397258173366e+00 -2.472553849220275879e-01 -3.008012175559997559e-01
2.728864229323089141e+00 -2.655412554740905762e-01 -3.190870881080627441e-01
2.762143061388005361e+00 -2.802437543869018555e-01 -3.337895870208740234e-01
2.795421893452920692e+00 -2.914216518402099609e-01 -3.449674844741821289e-01
2.828700725517836467e+00 -2.992913722991943359e-01 -3.528372049331665039e-01
2.861979557582752687e+00 -3.042237758636474609e-01 -3.577696084976196289e-01
2.895258389647668018e+00 -3.067240715026855469e-01 -3.602699041366577148e-01
2.928537221712583793e+00 -3.074051737785339355e-01 -3.609510064125061035e-01
2.961816053777499125e+00 -3.069470524787902832e-01 -3.604928851127624512e-01
2.995094885842414900e+00 -3.060755133628845215e-01 -3.596213459968566895e-01
3.028373717907330676e+00 -3.055065274238586426e-01 -3.590523600578308105e-01
3.061652549972246007e+00 -3.059263229370117188e-01 -3.594721555709838867e-01
3.094931382037162226e+00 -3.079336881637573242e-01 -3.614795207977294922e-01
3.128210214102078002e+00 -3.120149970054626465e-01 -3.655608296394348145e-01
3.161489046166993777e+00 -3.185114264488220215e-01 -3.720572590827941895e-01
3.194767878231909553e+00 -3.275986313819885254e-01 -3.811444640159606934e-01
3.228046710296825328e+00 -3.392786383628845215e-01 -3.928244709968566895e-01
3.261325542361740659e+00 -3.533820509910583496e-01 -4.069278836250305176e-01
