# r (Angstrom)    E (eV)    ΔE (eV)
2.619968466466876755e+00 1.968421936035156250e-01 1.432950496673583984e-01
2.673437210680486231e+00 2.021440267562866211e-01 1.485968828201293945e-01
2.726905954894096595e+00 2.077857255935668945e-01 1.542385816574096680e-01
2.780374699107706071e+00 2.137445807456970215e-01 1.601974368095397949e-01
2.833843443321315991e+00 2.199193239212036133e-01 1.663721799850463867e-01
2.887312187534925467e+00 2.259339690208435059e-01 1.723868250846862793e-01
2.940780931748535387e+00 2.310502529144287109e-01 1.775031089782714844e-01
2.994249675962144863e+00 2.342021465301513672e-01 1.806550025939941406e-01
3.047718420175754783e+00 2.341562509536743164e-01 1.806091070175170898e-01
3.101187164389364259e+00 2.297474145889282227e-01 1.762002706527709961e-01
3.154655908602974179e+00 2.201678156852722168e-01 1.666206717491149902e-01
3.208124652816584099e+00 2.052215337753295898e-01 1.516743898391723633e-01
3.261593397030194019e+00 1.854590177536010742e-01 1.319118738174438477e-01
3.315062141243803495e+00 1.621850728988647461e-01 1.086379289627075195e-01
3.368530885457412971e+00 1.373112797737121582e-01 8.376413583755493164e-02
3.421999629671022891e+00 1.129981279373168945e-01 5.945098400115966797e-02
3.475468373884632367e+00 9.132671356201171875e-02 3.777956962585449219e-02
3.528937118098242287e+00 7.393074035644531250e-02 2.038359642028808594e-02
3.582405862311852207e+00 6.172007322311401367e-02 8.172929286956787109e-03
3.635874606525461683e+00 5.478769540786743164e-02 1.240551471710205078e-03
3.689343350739071603e+00 5.247312784194946289e-02 -1.074016094207763672e-03
3.742812094952681523e+00 5.354714393615722656e-02 0.000000000000000000e+00
3.796280839166290999e+00 5.651950836181640625e-02 2.972364425659179688e-03
3.849749583379900475e+00 5.986523628234863281e-02 6.318092346191406250e-03
3.903218327593509951e+00 6.226360797882080078e-02 8.716464042663574219e-03
3.956687071807120759e+00 6.277072429656982422e-02 9.223580360412597656e-03
4.010155816020730235e+00 6.089669466018676758e-02 7.349550724029541016e-03
4.063624560234339711e+00 5.660843849182128906e-02 3.061294555664062500e-03
4.117093304447949187e+00 5.026638507843017578e-02 -3.280758857727050781e-03
4.170562048661559551e+00 4.251819849014282227e-02 -1.102894544601440430e-02
4.224030792875169027e+00 3.415960073471069336e-02 -1.938754320144653320e-02
4.277499537088778503e+00 2.599853277206420898e-02 -2.754861116409301758e-02
4.330968281302387979e+00 1.872456073760986328e-02 -3.482258319854736328e-02
4.384437025515997455e+00 1.285129785537719727e-02 -4.069584608078002930e-02
4.437905769729607819e+00 8.706510066986083984e-03 -4.484063386917114258e-02
4.491374513943217295e+00 6.439089775085449219e-03 -4.710805416107177734e-02
4.544843258156826771e+00 6.131649017333984375e-03 -4.741549491882324219e-02
4.598312002370438023e+00 7.899940013885498047e-03 -4.564720392227172852e-02
4.651780746584047499e+00 1.202934980392456055e-02 -4.151779413223266602e-02
4.705249490797656975e+00 1.891338825225830078e-02 -3.463375568389892578e-02
4.758718235011266451e+00 2.901095151901245117e-02 -2.453619241714477539e-02
4.812186979224875927e+00 4.273420572280883789e-02 -1.081293821334838867e-02
4.865655723438485403e+00 6.028944253921508789e-02 6.742298603057861328e-03
4.919124467652094879e+00 8.156192302703857422e-02 2.801477909088134766e-02
4.972593211865705243e+00 1.061151623725891113e-01 5.256801843643188477e-02
5.026061956079314719e+00 1.331925988197326660e-01 7.964545488357543945e-02
5.079530700292925083e+00 1.617325544357299805e-01 1.081854104995727539e-01
5.132999444506534559e+00 1.904630661010742188e-01 1.369159221649169922e-01
5.186468188720144035e+00 2.179796695709228516e-01 1.644325256347656250e-01
5.239936932933753511e+00 2.429156899452209473e-01 1.893685460090637207e-01
