# r (Angstrom)    E (eV)    ΔE (eV)
2.822456957164461766e+00 7.520365715026855469e-02 2.165651321411132812e-02
2.880058119555573004e+00 6.901431083679199219e-02 1.546716690063476562e-02
2.937659281946684686e+00 6.358224153518676758e-02 1.003509759902954102e-02
2.995260444337795924e+00 5.937147140502929688e-02 5.824327468872070312e-03
3.052861606728907606e+00 5.674505233764648438e-02 3.197908401489257812e-03
3.110462769120018844e+00 5.592149496078491211e-02 2.374351024627685547e-03
3.168063931511130527e+00 5.696409940719604492e-02 3.416955471038818359e-03
3.225665093902241765e+00 5.979877710342407227e-02 6.251633167266845703e-03
3.283266256293353447e+00 6.406486034393310547e-02 1.051771640777587891e-02
3.340867418684464685e+00 6.907981634140014648e-02 1.553267240524291992e-02
3.398468581075575923e+00 7.396036386489868164e-02 2.041321992874145508e-02
3.456069743466687605e+00 7.777237892150878906e-02 2.422523498535156250e-02
3.513670905857799287e+00 7.972872257232666016e-02 2.618157863616943359e-02
3.571272068248910969e+00 7.939994335174560547e-02 2.585279941558837891e-02
3.628873230640022207e+00 7.683300971984863281e-02 2.328586578369140625e-02
3.686474393031133889e+00 7.253313064575195312e-02 1.898598670959472656e-02
3.744075555422245127e+00 6.732720136642456055e-02 1.378005743026733398e-02
3.801676717813356809e+00 6.215292215347290039e-02 8.605778217315673828e-03
3.859277880204468048e+00 5.783551931381225586e-02 4.288375377655029297e-03
3.916879042595579286e+00 5.489069223403930664e-02 1.343548297882080078e-03
3.974480204986690968e+00 5.349630117416381836e-02 -5.084276199340820312e-05
4.032081367377802650e+00 5.354714393615722656e-02 0.000000000000000000e+00
4.089682529768913888e+00 5.477696657180786133e-02 1.229822635650634766e-03
4.147283692160025126e+00 5.691230297088623047e-02 3.365159034729003906e-03
4.204884854551136364e+00 5.973362922668457031e-02 6.186485290527343750e-03
4.262486016942248490e+00 6.304848194122314453e-02 9.501338005065917969e-03
4.320087179333359728e+00 6.664443016052246094e-02 1.309728622436523438e-02
4.377688341724470966e+00 7.018780708312988281e-02 1.664066314697265625e-02
4.435289504115582204e+00 7.317996025085449219e-02 1.963281631469726562e-02
4.492890666506694330e+00 7.501727342605590820e-02 2.147012948989868164e-02
4.550491828897805568e+00 7.513320446014404297e-02 2.158606052398681641e-02
4.608092991288916807e+00 7.316523790359497070e-02 1.961809396743774414e-02
4.665694153680028045e+00 6.913483142852783203e-02 1.558768749237060547e-02
4.723295316071139283e+00 6.347656250000000000e-02 9.929418563842773438e-03
4.780896478462251409e+00 5.704206228256225586e-02 3.494918346405029297e-03
4.838497640853362647e+00 5.093669891357421875e-02 -2.610445022583007812e-03
4.896098803244473885e+00 4.629629850387573242e-02 -7.250845432281494141e-03
4.953699965635586011e+00 4.408079385757446289e-02 -9.466350078582763672e-03
5.011301128026697249e+00 4.490250349044799805e-02 -8.644640445709228516e-03
5.068902290417809375e+00 4.892134666442871094e-02 -4.625797271728515625e-03
5.126503452808920613e+00 5.601310729980468750e-02 2.465963363647460938e-03
5.184104615200031851e+00 6.582200527191162109e-02 1.227486133575439453e-02
5.241705777591143089e+00 7.778519392013549805e-02 2.423804998397827148e-02
5.299306939982254328e+00 9.117943048477172852e-02 3.763228654861450195e-02
5.356908102373366454e+00 1.051869988441467285e-01 5.163985490798950195e-02
5.414509264764477692e+00 1.189326047897338867e-01 6.538546085357666016e-02
5.472110427155589818e+00 1.316058039665222168e-01 7.805866003036499023e-02
5.529711589546701056e+00 1.425468325614929199e-01 8.899968862533569336e-02
5.587312751937812294e+00 1.512921452522277832e-01 9.774500131607055664e-02
5.644913914328923532e+00 1.576198935508728027e-01 1.040727496147155762e-01
