# r (Angstrom)    E (eV)    ΔE (eV)
2.613494267559498319e+00 1.200299859046936035e-01 6.648284196853637695e-02
2.666830885264793949e+00 7.550221681594848633e-02 2.195507287979125977e-02
2.720167502970090467e+00 3.543055057525634766e-02 -1.811659336090087891e-02
2.773504120675386098e+00 6.154179573059082031e-04 -5.293172597885131836e-02
2.826840738380682172e+00 -2.835887670516967773e-02 -8.190602064132690430e-02
2.880177356085977802e+00 -5.101758241653442383e-02 -1.045647263526916504e-01
2.933513973791273877e+00 -6.692755222320556641e-02 -1.204746961593627930e-01
2.986850591496569507e+00 -7.571721076965332031e-02 -1.292643547058105469e-01
3.040187209201865581e+00 -7.716804742813110352e-02 -1.307151913642883301e-01
3.093523826907161212e+00 -7.145088911056518555e-02 -1.249980330467224121e-01
3.146860444612457286e+00 -5.924874544143676758e-02 -1.127958893775939941e-01
3.200197062317753360e+00 -4.179525375366210938e-02 -9.534239768981933594e-02
3.253533680023049435e+00 -2.092134952545166016e-02 -7.446849346160888672e-02
3.306870297728345065e+00 1.252174377441406250e-03 -5.229496955871582031e-02
3.360206915433640695e+00 2.253901958465576172e-02 -3.100812435150146484e-02
3.413543533138936770e+00 4.100060462951660156e-02 -1.254653930664062500e-02
3.466880150844232400e+00 5.517828464508056641e-02 1.631140708923339844e-03
3.520216768549528474e+00 6.423741579055786133e-02 1.069027185440063477e-02
3.573553386254824549e+00 6.797838211059570312e-02 1.443123817443847656e-02
3.626890003960120179e+00 6.679147481918334961e-02 1.324433088302612305e-02
3.680226621665416253e+00 6.156224012374877930e-02 8.015096187591552734e-03
3.733563239370712328e+00 5.354714393615722656e-02 0.000000000000000000e+00
3.786899857076007958e+00 4.425442218780517578e-02 -9.292721748352050781e-03
3.840236474781303588e+00 3.523170948028564453e-02 -1.831543445587158203e-02
3.893573092486599219e+00 2.787125110626220703e-02 -2.567589282989501953e-02
3.946909710191896181e+00 2.327340841293334961e-02 -3.027373552322387695e-02
4.000246327897191811e+00 2.215373516082763672e-02 -3.139340877532958984e-02
4.053582945602487442e+00 2.486228942871093750e-02 -2.868485450744628906e-02
4.106919563307783072e+00 3.145521879196166992e-02 -2.209192514419555664e-02
4.160256181013079591e+00 4.167342185974121094e-02 -1.187372207641601562e-02
4.213592798718375221e+00 5.517399311065673828e-02 1.626849174499511719e-03
4.266929416423670851e+00 7.148945331573486328e-02 1.794230937957763672e-02
4.320266034128966481e+00 8.997303247451782227e-02 3.642588853836059570e-02
4.373602651834262112e+00 1.097378730773925781e-01 5.619072914123535156e-02
4.426939269539558630e+00 1.295845508575439453e-01 7.603740692138671875e-02
4.480275887244854260e+00 1.481337547302246094e-01 9.458661079406738281e-02
4.533612504950149891e+00 1.639560461044311523e-01 1.104089021682739258e-01
4.586949122655447297e+00 1.757589578628540039e-01 1.222118139266967773e-01
4.640285740360742928e+00 1.825484633445739746e-01 1.290013194084167480e-01
4.693622358066038558e+00 1.837530136108398438e-01 1.302058696746826172e-01
4.746958975771334188e+00 1.791098117828369141e-01 1.255626678466796875e-01
4.800295593476629818e+00 1.688362360000610352e-01 1.152890920639038086e-01
4.853632211181925449e+00 1.536491513252258301e-01 1.001020073890686035e-01
4.906968828887221079e+00 1.347770094871520996e-01 8.122986555099487305e-02
4.960305446592517598e+00 1.138200759887695312e-01 6.027293205261230469e-02
5.013642064297813228e+00 9.254908561706542969e-02 3.900194168090820312e-02
5.066978682003109746e+00 7.262969017028808594e-02 1.908254623413085938e-02
5.120315299708405377e+00 5.541402101516723633e-02 1.866877079010009766e-03
5.173651917413701007e+00 4.184544086456298828e-02 -1.170170307159423828e-02
5.226988535118996637e+00 3.236275911331176758e-02 -2.118438482284545898e-02
