# r (Angstrom)    E (eV)    ΔE (eV)
1.217761365235774607e+00 2.365674376487731934e-01 1.830202937126159668e-01
1.242613637995688469e+00 2.237203717231750488e-01 1.701732277870178223e-01
1.267465910755602332e+00 2.107563614845275879e-01 1.572092175483703613e-01
1.292318183515515972e+00 1.977467536926269531e-01 1.441996097564697266e-01
1.317170456275429835e+00 1.847772598266601562e-01 1.312301158905029297e-01
1.342022729035343476e+00 1.719313263893127441e-01 1.183841824531555176e-01
1.366875001795257338e+00 1.593086719512939453e-01 1.057615280151367188e-01
1.391727274555170979e+00 1.470090150833129883e-01 9.346187114715576172e-02
1.416579547315084842e+00 1.351472139358520508e-01 8.160006999969482422e-02
1.441431820074998704e+00 1.238407492637634277e-01 7.029360532760620117e-02
1.466284092834912345e+00 1.132112741470336914e-01 5.966413021087646484e-02
1.491136365594826207e+00 1.033669710159301758e-01 4.981982707977294922e-02
1.515988638354740070e+00 9.440159797668457031e-02 4.085445404052734375e-02
1.540840911114653711e+00 8.638358116149902344e-02 3.283643722534179688e-02
1.565693183874567351e+00 7.935297489166259766e-02 2.580583095550537109e-02
1.590545456634481214e+00 7.331198453903198242e-02 1.976484060287475586e-02
1.615397729394394855e+00 6.822574138641357422e-02 1.467859745025634766e-02
1.640250002154308939e+00 6.402891874313354492e-02 1.048177480697631836e-02
1.665102274914222580e+00 6.061339378356933594e-02 7.066249847412109375e-03
1.689954547674136220e+00 5.784130096435546875e-02 4.294157028198242188e-03
1.714806820434050083e+00 5.554801225662231445e-02 2.000868320465087891e-03
1.739659093193963946e+00 5.354714393615722656e-02 0.000000000000000000e+00
1.764511365953877586e+00 5.163335800170898438e-02 -1.913785934448242188e-03
1.789363638713791227e+00 4.959523677825927734e-02 -3.951907157897949219e-03
1.814215911473705090e+00 4.721438884735107422e-02 -6.332755088806152344e-03
1.839068184233618952e+00 4.427188634872436523e-02 -9.275257587432861328e-03
1.863920456993532815e+00 4.056274890899658203e-02 -1.298439502716064453e-02
1.888772729753446455e+00 3.586941957473754883e-02 -1.767772436141967773e-02
1.913625002513360096e+00 3.001666069030761719e-02 -2.353048324584960938e-02
1.938477275273274181e+00 2.285957336425781250e-02 -3.068757057189941406e-02
1.963329548033187821e+00 1.428675651550292969e-02 -3.926038742065429688e-02
1.988181820793101462e+00 4.222154617309570312e-03 -4.932498931884765625e-02
2.013034093553015325e+00 -7.363379001617431641e-03 -6.091052293777465820e-02
2.037886366312928743e+00 -2.044910192489624023e-02 -7.399624586105346680e-02
2.062738639072843050e+00 -3.497838973999023438e-02 -8.852553367614746094e-02
2.087590911832756468e+00 -5.084753036499023438e-02 -1.043946743011474609e-01
2.112443184592670331e+00 -6.787133216857910156e-02 -1.214184761047363281e-01
2.137295457352584194e+00 -8.582949638366699219e-02 -1.393766403198242188e-01
2.162147730112498056e+00 -1.044644713401794434e-01 -1.580116152763366699e-01
2.187000002872411919e+00 -1.234960556030273438e-01 -1.770431995391845703e-01
2.211852275632325338e+00 -1.426184773445129395e-01 -1.961656212806701660e-01
2.236704548392239200e+00 -1.615211367607116699e-01 -2.150682806968688965e-01
2.261556821152152619e+00 -1.798979640007019043e-01 -2.334451079368591309e-01
2.286409093912066481e+00 -1.974732279777526855e-01 -2.510203719139099121e-01
2.311261366671980788e+00 -2.140019536018371582e-01 -2.675490975379943848e-01
2.336113639431894207e+00 -2.292892932891845703e-01 -2.828364372253417969e-01
2.360965912191808513e+00 -2.431988120079040527e-01 -2.967459559440612793e-01
2.385818184951721932e+00 -2.556521296501159668e-01 -3.091992735862731934e-01
2.410670457711635795e+00 -2.666370272636413574e-01 -3.201841711997985840e-01
2.435522730471549213e+00 -2.761996388435363770e-01 -3.297467827796936035e-01
