# r (Angstrom)    E (eV)    ΔE (eV)
1.929908534405905485e+00 -2.906060218811035156e-02 -8.260774612426757812e-02
1.969294422863168803e+00 -4.402911663055419922e-02 -9.757626056671142578e-02
2.008680311320432565e+00 -5.487811565399169922e-02 -1.084252595901489258e-01
2.048066199777695662e+00 -6.144320964813232422e-02 -1.149903535842895508e-01
2.087452088234959202e+00 -6.365042924880981445e-02 -1.171975731849670410e-01
2.126837976692222298e+00 -6.156116724014282227e-02 -1.151083111763000488e-01
2.166223865149485839e+00 -5.542224645614624023e-02 -1.089693903923034668e-01
2.205609753606749379e+00 -4.570007324218750000e-02 -9.924721717834472656e-02
2.244995642064012920e+00 -3.308612108230590820e-02 -8.663326501846313477e-02
2.284381530521276016e+00 -1.844084262847900391e-02 -7.198798656463623047e-02
2.323767418978539112e+00 -2.737164497375488281e-03 -5.628430843353271484e-02
2.363153307435802652e+00 1.302891969680786133e-02 -4.051822423934936523e-02
2.402539195893066193e+00 2.790331840515136719e-02 -2.564382553100585938e-02
2.441925084350329733e+00 4.107505083084106445e-02 -1.247209310531616211e-02
2.481310972807592830e+00 5.190742015838623047e-02 -1.639723777770996094e-03
2.520696861264856370e+00 5.998837947845458984e-02 6.441235542297363281e-03
2.560082749722119466e+00 6.512820720672607422e-02 1.158106327056884766e-02
2.599468638179383007e+00 6.734800338745117188e-02 1.380085945129394531e-02
2.638854526636646547e+00 6.686395406723022461e-02 1.331681013107299805e-02
2.678240415093909643e+00 6.405264139175415039e-02 1.050549745559692383e-02
2.717626303551173184e+00 5.941545963287353516e-02 5.868315696716308594e-03
2.757012192008436724e+00 5.354714393615722656e-02 0.000000000000000000e+00
2.796398080465699820e+00 4.711198806762695312e-02 -6.435155868530273438e-03
2.835783968922963361e+00 4.077208042144775391e-02 -1.277506351470947266e-02
2.875169857380226457e+00 3.515565395355224609e-02 -1.839148998260498047e-02
2.914555745837490441e+00 3.081530332565307617e-02 -2.273184061050415039e-02
2.953941634294753538e+00 2.819633483886718750e-02 -2.535080909729003906e-02
2.993327522752016634e+00 2.762162685394287109e-02 -2.592551708221435547e-02
3.032713411209280174e+00 2.928650379180908203e-02 -2.426064014434814453e-02
3.072099299666543715e+00 3.326767683029174805e-02 -2.027946710586547852e-02
3.111485188123807255e+00 3.956222534179687500e-02 -1.398491859436035156e-02
3.150871076581070351e+00 4.804217815399169922e-02 -5.504965782165527344e-03
3.190256965038333448e+00 5.852293968200683594e-02 4.975795745849609375e-03
3.229642853495596988e+00 7.080417871475219727e-02 1.725703477859497070e-02
3.269028741952860528e+00 8.465468883514404297e-02 3.110754489898681641e-02
3.308414630410124069e+00 9.979641437530517578e-02 4.624927043914794922e-02
3.347800518867387165e+00 1.159005165100097656e-01 6.235337257385253906e-02
3.387186407324651150e+00 1.325778961181640625e-01 7.903075218200683594e-02
3.426572295781914246e+00 1.493912935256958008e-01 9.584414958953857422e-02
3.465958184239177342e+00 1.658618450164794922e-01 1.123147010803222656e-01
3.505344072696440882e+00 1.814587712287902832e-01 1.279116272926330566e-01
3.544729961153703979e+00 1.956394910812377930e-01 1.420923471450805664e-01
3.584115849610967075e+00 2.078776955604553223e-01 1.543305516242980957e-01
3.623501738068230615e+00 2.176607847213745117e-01 1.641136407852172852e-01
3.662887626525494156e+00 2.245351672172546387e-01 1.709880232810974121e-01
3.702273514982757696e+00 2.280458211898803711e-01 1.744986772537231445e-01
3.741659403440021237e+00 2.278056144714355469e-01 1.742584705352783203e-01
3.781045291897284777e+00 2.235436439514160156e-01 1.699965000152587891e-01
3.820431180354547873e+00 2.150627970695495605e-01 1.615156531333923340e-01
3.859817068811810969e+00 2.023202180862426758e-01 1.487730741500854492e-01
