# r (Angstrom)    E (eV)    ΔE (eV)
1.630662771180870330e+00 -6.265829205513000488e-01 -6.801300644874572754e-01
1.663941603245786105e+00 -5.963442325592041016e-01 -6.498913764953613281e-01
1.697220435310701880e+00 -5.598545670509338379e-01 -6.134017109870910645e-01
1.730499267375617434e+00 -5.178173184394836426e-01 -5.713644623756408691e-01
1.763778099440533431e+00 -4.711130261421203613e-01 -5.246601700782775879e-01
1.797056931505448985e+00 -4.207733273506164551e-01 -4.743204712867736816e-01
1.830335763570364760e+00 -3.679231405258178711e-01 -4.214702844619750977e-01
1.863614595635280535e+00 -3.137314915657043457e-01 -3.672786355018615723e-01
1.896893427700196311e+00 -2.593657374382019043e-01 -3.129128813743591309e-01
1.930172259765111864e+00 -2.059739828109741211e-01 -2.595211267471313477e-01
1.963451091830027417e+00 -1.546460390090942383e-01 -2.081931829452514648e-01
1.996729923894943415e+00 -1.064251065254211426e-01 -1.599722504615783691e-01
2.030008755959859190e+00 -6.227356195449829102e-02 -1.158207058906555176e-01
2.063287588024774966e+00 -2.306413650512695312e-02 -7.661128044128417969e-02
2.096566420089690297e+00 1.042711734771728516e-02 -4.312002658843994141e-02
2.129845252154606516e+00 3.756141662597656250e-02 -1.598572731018066406e-02
2.163124084219521848e+00 5.785197019577026367e-02 4.304826259613037109e-03
2.196402916284437623e+00 7.099902629852294922e-02 1.745188236236572266e-02
2.229681748349353398e+00 7.690370082855224609e-02 2.335655689239501953e-02
2.262960580414269174e+00 7.568991184234619141e-02 2.214276790618896484e-02
2.296239412479184949e+00 6.771659851074218750e-02 1.416945457458496094e-02
2.329518244544100725e+00 5.354714393615722656e-02 0.000000000000000000e+00
2.362797076609016500e+00 3.393173217773437500e-02 -1.961541175842285156e-02
2.396075908673931831e+00 9.774982929229736328e-03 -4.377216100692749023e-02
2.429354740738847607e+00 -1.791536808013916016e-02 -7.146251201629638672e-02
2.462633572803763826e+00 -4.807662963867187500e-02 -1.016237735748291016e-01
2.495912404868679157e+00 -7.963991165161132812e-02 -1.331870555877685547e-01
2.529191236933594933e+00 -1.115736961364746094e-01 -1.651208400726318359e-01
2.562470068998510708e+00 -1.429152488708496094e-01 -1.964623928070068359e-01
2.595748901063426484e+00 -1.728153824806213379e-01 -2.263625264167785645e-01
2.629027733128342259e+00 -2.005377411842346191e-01 -2.540848851203918457e-01
2.662306565193258034e+00 -2.254971265792846680e-01 -2.790442705154418945e-01
2.695585397258173366e+00 -2.472556829452514648e-01 -3.008028268814086914e-01
2.728864229323089141e+00 -2.655410170555114746e-01 -3.190881609916687012e-01
2.762143061388005361e+00 -2.802428007125854492e-01 -3.337899446487426758e-01
2.795421893452920692e+00 -2.914206385612487793e-01 -3.449677824974060059e-01
2.828700725517836467e+00 -2.992910146713256836e-01 -3.528381586074829102e-01
2.861979557582752687e+00 -3.042241930961608887e-01 -3.577713370323181152e-01
2.895258389647668018e+00 -3.067243695259094238e-01 -3.602715134620666504e-01
2.928537221712583793e+00 -3.074049949645996094e-01 -3.609521389007568359e-01
2.961816053777499125e+00 -3.069459199905395508e-01 -3.604930639266967773e-01
2.995094885842414900e+00 -3.060753345489501953e-01 -3.596224784851074219e-01
3.028373717907330676e+00 -3.055065870285034180e-01 -3.590537309646606445e-01
3.061652549972246007e+00 -3.059267401695251465e-01 -3.594738841056823730e-01
3.094931382037162226e+00 -3.079344034194946289e-01 -3.614815473556518555e-01
3.128210214102078002e+00 -3.120152354240417480e-01 -3.655623793601989746e-01
3.161489046166993777e+00 -3.185108304023742676e-01 -3.720579743385314941e-01
3.194767878231909553e+00 -3.275984525680541992e-01 -3.811455965042114258e-01
3.228046710296825328e+00 -3.392782807350158691e-01 -3.928254246711730957e-01
3.261325542361740659e+00 -3.533818125724792480e-01 -4.069289565086364746e-01
