# r (Angstrom)    E (eV)    ΔE (eV)
2.941928504671981415e+00 1.541806459426879883e-01 1.006335020065307617e-01
3.001967861910184610e+00 1.484836339950561523e-01 9.493649005889892578e-02
3.062007219148388693e+00 1.455436944961547852e-01 9.199655055999755859e-02
3.122046576386592331e+00 1.443896293640136719e-01 9.084248542785644531e-02
3.182085933624795970e+00 1.442476511001586914e-01 9.070050716400146484e-02
3.242125290862999609e+00 1.445422768592834473e-01 9.099513292312622070e-02
3.302164648101203692e+00 1.448236107826232910e-01 9.127646684646606445e-02
3.362204005339406887e+00 1.446568965911865234e-01 9.110975265502929688e-02
3.422243362577610970e+00 1.435229778289794922e-01 8.997583389282226562e-02
3.482282719815814609e+00 1.409175395965576172e-01 8.737039566040039062e-02
3.542322077054017804e+00 1.364960074424743652e-01 8.294886350631713867e-02
3.602361434292221887e+00 1.301352977752685547e-01 7.658815383911132812e-02
3.662400791530425970e+00 1.219302415847778320e-01 6.838309764862060547e-02
3.722440148768629165e+00 1.122008562088012695e-01 5.865371227264404297e-02
3.782479506006832803e+00 1.014691591262817383e-01 4.792201519012451172e-02
3.842518863245036886e+00 9.037542343139648438e-02 3.682827949523925781e-02
3.902558220483240525e+00 7.963955402374267578e-02 2.609241008758544922e-02
3.962597577721444164e+00 7.004112005233764648e-02 1.649397611618041992e-02
4.022636934959647803e+00 6.227630376815795898e-02 8.729159832000732422e-03
4.082676292197850998e+00 5.680060386657714844e-02 3.253459930419921875e-03
4.142715649436055081e+00 5.389368534088134766e-02 3.465414047241210938e-04
4.202755006674259164e+00 5.354714393615722656e-02 0.000000000000000000e+00
4.262794363912462359e+00 5.551469326019287109e-02 1.967549324035644531e-03
4.322833721150666442e+00 5.926078557968139648e-02 5.713641643524169922e-03
4.382873078388869637e+00 6.401568651199340820e-02 1.046854257583618164e-02
4.442912435627073720e+00 6.899505853652954102e-02 1.544791460037231445e-02
4.502951792865277802e+00 7.354116439819335938e-02 1.999402046203613281e-02
4.562991150103480997e+00 7.726144790649414062e-02 2.371430397033691406e-02
4.623030507341684192e+00 8.007264137268066406e-02 2.652549743652343750e-02
4.683069864579889163e+00 8.220636844635009766e-02 2.865922451019287109e-02
4.743109221818092358e+00 8.416491746902465820e-02 3.061777353286743164e-02
4.803148579056295553e+00 8.661013841629028320e-02 3.306299448013305664e-02
4.863187936294499636e+00 9.026569128036499023e-02 3.671854734420776367e-02
4.923227293532702831e+00 9.585171937942504883e-02 4.230457544326782227e-02
4.983266650770906914e+00 1.039748787879943848e-01 5.042773485183715820e-02
5.043306008009110997e+00 1.150254607200622559e-01 6.147831678390502930e-02
5.103345365247314191e+00 1.290842294692993164e-01 7.553708553314208984e-02
5.163384722485519163e+00 1.458656191825866699e-01 9.231847524642944336e-02
5.223424079723722357e+00 1.648351550102233887e-01 1.112880110740661621e-01
5.283463436961925552e+00 1.853134632110595703e-01 1.317663192749023438e-01
5.343502794200128747e+00 2.066029906272888184e-01 1.530558466911315918e-01
5.403542151438332830e+00 2.281460762023925781e-01 1.745989322662353516e-01
5.463581508676536025e+00 2.496499419212341309e-01 1.961027979850769043e-01
5.523620865914739220e+00 2.711006402969360352e-01 2.175534963607788086e-01
5.583660223152944191e+00 2.926567196846008301e-01 2.391095757484436035e-01
5.643699580391147386e+00 3.145635128021240234e-01 2.610163688659667969e-01
5.703738937629352357e+00 3.368609547615051270e-01 2.833138108253479004e-01
5.763778294867555552e+00 3.591647148132324219e-01 3.056175708770751953e-01
5.823817652105758746e+00 3.806039690971374512e-01 3.270568251609802246e-01
5.883857009343962829e+00 3.998414874076843262e-01 3.462943434715270996e-01
