# r (Angstrom)    E (eV)    ΔE (eV)
2.192617543685746906e+00 1.058517694473266602e-01 5.230593681335449219e-02
2.237364840495660090e+00 1.074844598770141602e-01 5.393862724304199219e-02
2.282112137305573718e+00 1.084977984428405762e-01 5.495196580886840820e-02
2.326859434115486458e+00 1.087402105331420898e-01 5.519437789916992188e-02
2.371606730925400086e+00 1.081485748291015625e-01 5.460274219512939453e-02
2.416354027735313270e+00 1.067497730255126953e-01 5.320394039154052734e-02
2.461101324545226454e+00 1.046714186668395996e-01 5.112558603286743164e-02
2.505848621355139638e+00 1.020929813385009766e-01 4.854714870452880859e-02
2.550595918165052822e+00 9.920334815979003906e-02 4.565751552581787109e-02
2.595343214974966006e+00 9.618556499481201172e-02 4.263973236083984375e-02
2.640090511784879190e+00 9.314870834350585938e-02 3.960287570953369141e-02
2.684837808594792374e+00 9.015059471130371094e-02 3.660476207733154297e-02
2.729585105404706002e+00 8.719390630722045898e-02 3.364807367324829102e-02
2.774332402214618742e+00 8.423405885696411133e-02 3.068822622299194336e-02
2.819079699024531926e+00 8.119922876358032227e-02 2.765339612960815430e-02
2.863826995834445110e+00 7.801479101181030273e-02 2.446895837783813477e-02
2.908574292644358295e+00 7.460641860961914062e-02 2.106058597564697266e-02
2.953321589454271923e+00 7.092189788818359375e-02 1.737606525421142578e-02
2.998068886264184663e+00 6.694906949996948242e-02 1.340323686599731445e-02
3.042816183074097847e+00 6.270241737365722656e-02 9.156584739685058594e-03
3.087563479884011475e+00 5.821019411087036133e-02 4.664361476898193359e-03
3.132310776693924659e+00 5.354583263397216797e-02 0.000000000000000000e+00
3.177058073503837843e+00 4.888737201690673828e-02 -4.658460617065429688e-03
3.221805370313750583e+00 4.443186521530151367e-02 -9.113967418670654297e-03
3.266552667123663767e+00 4.039198160171508789e-02 -1.315385103225708008e-02
3.311299963933577395e+00 3.700417280197143555e-02 -1.654165983200073242e-02
3.356047260743490579e+00 3.452074527740478516e-02 -1.902508735656738281e-02
3.400794557553403763e+00 3.319442272186279297e-02 -2.035140991210937500e-02
3.445541854363316503e+00 3.327274322509765625e-02 -2.027308940887451172e-02
3.490289151173230575e+00 3.498864173889160156e-02 -1.855719089508056641e-02
3.535036447983143315e+00 3.852558135986328125e-02 -1.502025127410888672e-02
3.579783744793056499e+00 4.401946067810058594e-02 -9.526371955871582031e-03
3.624531041602969683e+00 5.154269933700561523e-02 -2.003133296966552734e-03
3.669278338412882867e+00 6.108713150024414062e-02 7.541298866271972656e-03
3.714025635222796495e+00 7.254552841186523438e-02 1.899969577789306641e-02
3.758772932032709235e+00 8.571594953536987305e-02 3.217011690139770508e-02
3.803520228842622419e+00 1.002942919731140137e-01 4.674845933914184570e-02
3.848267525652536047e+00 1.158519387245178223e-01 6.230610609054565430e-02
3.893014822462449231e+00 1.318955421447753906e-01 7.834970951080322266e-02
3.937762119272362416e+00 1.479092836380004883e-01 9.436345100402832031e-02
3.982509416082275600e+00 1.633840799331665039e-01 1.098382472991943359e-01
4.027256712892188339e+00 1.778249144554138184e-01 1.242790818214416504e-01
4.072004009702101079e+00 1.908162236213684082e-01 1.372703909873962402e-01
4.116751306512014708e+00 2.020093798637390137e-01 1.484635472297668457e-01
4.161498603321928336e+00 2.111176848411560059e-01 1.575718522071838379e-01
4.206245900131841076e+00 2.179501056671142578e-01 1.644042730331420898e-01
4.250993196941754704e+00 2.224084734916687012e-01 1.688626408576965332e-01
4.295740493751668332e+00 2.244676947593688965e-01 1.709218621253967285e-01
4.340487790561581072e+00 2.241545915603637695e-01 1.706087589263916016e-01
4.385235087371493812e+00 2.215401530265808105e-01 1.679943203926086426e-01
